0.0 0.0 0
0.00390625 1.0468166551371463 3
0.0078125 1.0319094740579022 0
0.01171875 0.9462913221678023 0
0.015625 0.7238724313023351 0
0.01953125 0.5791648151286082 0
0.0234375 0.3232906661488266 0
0.02734375 0.11446336724883541 0
0.03125 0.01837725582163789 0
0.03515625 -0.12445049051722065 0
0.0390625 -0.2566894870783964 0
0.04296875 -0.2953461869764434 0
0.046875 -0.34280084605504324 4
0.05078125 -0.3253601903958919 0
0.0546875 -0.27276039999032453 0
0.05859375 -0.20898924639954838 0
0.0625 -0.17234523836679908 0
0.06640625 -0.16063318632119106 0
0.0703125 -0.12948656695908436 0
0.07421875 -0.10076548533637919 0
0.078125 -0.03131160061872703 0
0.08203125 -0.08867359380248128 0
0.0859375 -0.021376055462245584 0
0.08984375 -0.07424569042602222 0
0.09375 -0.0634709092738201 0
0.09765625 -0.04192425509322194 0
0.1015625 0.016959902196053457 0
0.10546875 0.020334165243690243 0
0.109375 -0.04480428385245725 0
0.11328125 -0.0005316908975433665 0
0.1171875 0.028062875858983566 0
0.12109375 0.007962053956922285 0
0.125 0.051314984614123746 0
0.12890625 0.06532069908225127 0
0.1328125 0.042030692735274565 0
0.13671875 0.010865911578587711 0
0.140625 0.025048366881228794 0
0.14453125 0.10074608364986656 0
0.1484375 0.11943700797948265 0
0.15234375 0.13638260546080833 0
0.15625 0.11211278131403937 0
0.16015625 0.10643785359936997 0
0.1640625 0.17026310955922416 0
0.16796875 0.12036473502293174 0
0.171875 0.19648864434545288 0
0.17578125 0.15433245949097418 0
0.1796875 0.23317952226106864 0
0.18359375 0.21502790561689455 0
0.1875 0.26069489695425446 0
0.19140625 0.261754463593348 0
0.1953125 0.28271352086780116 0
0.19921875 0.3024069876889933 0
0.203125 0.2898168483561398 0
0.20703125 0.30385076134895717 0
0.2109375 0.36328588214550506 0
0.21484375 0.34217602039714895 0
0.21875 0.3598360545950457 0
0.22265625 0.36110005831926 0
0.2265625 0.4118013681166623 0
0.23046875 0.3840279647991261 0
0.234375 0.37922177523967077 0
0.23828125 0.4185520227328319 0
0.2421875 0.387954545509033 0
0.24609375 0.415334745227457 5
0.25 0.3677072576565082 0
0.25390625 0.416367398405101 0
0.2578125 0.4110800338465903 0
0.26171875 0.40392310058132763 0
0.265625 0.34889410346862626 0
0.26953125 0.35032782648841476 0
0.2734375 0.3789983790787059 0
0.27734375 0.3147466357348794 0
0.28125 0.3471846814191461 0
0.28515625 0.2912859227928157 0
0.2890625 0.3152995125724052 0
0.29296875 0.25216442353522356 0
0.296875 0.28145638940473855 0
0.30078125 0.28175521113845553 0
0.3046875 0.22572403423805376 0
0.30859375 0.21608028167877308 0
0.3125 0.18055604374478046 0
0.31640625 0.17486402983479438 0
0.3203125 0.197004030721565 0
0.32421875 0.15975203867957846 0
0.328125 0.12324854586503994 0
0.33203125 0.1266769651009577 0
0.3359375 0.12873575445807953 0
0.33984375 0.08528691258182894 0
0.34375 0.04894846228975948 0
0.34765625 0.0660383384545616 0
0.3515625 0.05731700388316318 0
0.35546875 0.052437108142004196 0
0.359375 0.059388201656777495 0
0.36328125 0.002005221726791146 0
0.3671875 0.011865282217068623 0
0.37109375 0.02134582160095165 0
0.375 -0.01709505750659937 0
0.37890625 0.014763061438546086 0
0.3828125 0.01330284520380852 0
0.38671875 -0.004613264485225491 0
0.390625 -0.0485178020035054 0
0.39453125 -0.06738608305065587 0
0.3984375 -0.0625563990419452 0
0.40234375 -0.0733734669064357 0
0.40625 -0.05300041026262838 0
0.41015625 -0.0301609458834795 0
0.4140625 -0.06407709534591609 0
0.41796875 -0.02371707341164044 0
0.421875 -0.07262900865631657 0
0.42578125 -0.035184583507791314 0
0.4296875 -0.019790824546753166 0
0.43359375 -0.021488869492019152 0
0.4375 -0.0668528948096316 0
0.44140625 -0.0322895168699145 0
0.4453125 -0.07703674121207937 0
0.44921875 -0.0242974378729647 0
0.453125 -0.046297035878488484 0
0.45703125 -0.0381560100565146 0
0.4609375 -0.014840072201905044 0
0.46484375 -0.06188598960137383 0
0.46875 -0.010721994345568784 0
0.47265625 -0.057398385848473774 0
0.4765625 -0.03411967849119112 0
0.48046875 -0.05455360783499996 0
0.484375 -0.05364570021138153 0
0.48828125 -0.045987067195377325 0
0.4921875 -0.03486016774139607 0
0.49609375 -0.022575818936346623 0
0.5 -0.07335300806384341 0
0.50390625 -0.04637908816738057 0
0.5078125 -0.07365669188718688 0
0.51171875 -0.061953453468892944 0
0.515625 -0.04355695201168055 0
0.51953125 -0.03624885701714195 0
0.5234375 -0.06327422657110834 0
0.52734375 -0.06592598335680261 0
0.53125 0.006374725590945589 0
0.53515625 -0.028200005351471623 0
0.5390625 -0.0425862457716807 0
0.54296875 -0.05636168519036569 0
0.546875 0.013687268196198164 0
0.55078125 -0.0019072928394449455 0
0.5546875 0.010680038945838258 0
0.55859375 -0.04687090452693081 0
0.5625 -0.006826666335386464 0
0.56640625 0.0027481943692543656 0
0.5703125 -0.052154159420052255 0
0.57421875 -0.03001623377417603 0
0.578125 -0.007207438167770388 0
0.58203125 0.012023815730059364 0
0.5859375 0.020056800754217674 0
0.58984375 -0.018735454995635104 0
0.59375 -0.006330565905403611 0
0.59765625 -0.03427187658624414 0
0.6015625 0.010794026015917297 0
0.60546875 0.008676242306760115 0
0.609375 0.02123975363373179 0
0.61328125 -0.01814843864408157 0
0.6171875 0.02658961103317315 0
0.62109375 0.029095350158208154 0
0.625 -0.002846178832745316 0
0.62890625 -0.028098038058802333 0
0.6328125 0.015197486939058754 0
0.63671875 0.010512300804016845 0
0.640625 -0.019201633478903565 0
0.64453125 -0.04109919879785365 0
0.6484375 0.0011711120291482491 0
0.65234375 -0.02555551147073117 0
0.65625 0.02596965118338746 0
0.66015625 0.027704680306914562 0
0.6640625 -0.012377850391500514 0
0.66796875 0.03259593812010237 0
0.671875 -0.011300727139069771 0
0.67578125 -0.009908607992754401 0
0.6796875 -0.010689935819506714 0
0.68359375 0.008670435065776931 0
0.6875 -0.03370406725877289 0
0.69140625 -0.023108046989433688 0
0.6953125 -0.004112440970863081 0
0.69921875 0.01437919365068591 0
0.703125 -0.006248188893045056 0
0.70703125 0.031090182111947785 0
0.7109375 0.03727162780182851 0
0.71484375 0.019632077148087942 0
0.71875 0.0053292452109903275 0
0.72265625 0.016982986836688214 0
0.7265625 0.06127417732934892 0
0.73046875 0.02435128862208058 0
0.734375 0.07566270429585933 0
0.73828125 0.05672535513994399 0
0.7421875 0.035716873927427784 0
0.74609375 0.09621981240180731 0
0.75 0.10908629848117646 0
0.75390625 0.07438168769019109 0
0.7578125 0.0818375669201245 0
0.76171875 0.1261049670936606 0
0.765625 0.11236863246327196 0
0.76953125 0.16308413966329702 0
0.7734375 0.15252041364394697 0
0.77734375 0.18823235233895122 0
0.78125 0.16590067951121099 0
0.78515625 0.17939772155386355 0
0.7890625 0.20716624327625083 0
0.79296875 0.26597042226468676 0
0.796875 0.23749023456218832 0
0.80078125 0.25415403531365416 0
0.8046875 0.29671010525744435 0
0.80859375 0.30686102510664093 0
0.8125 0.3268373541664329 0
0.81640625 0.2981683186713699 0
0.8203125 0.29965831797638903 1
0.82421875 0.29551094349909707 0
0.828125 0.3111080921649331 0
0.83203125 0.31698492159592745 0
0.8359375 0.3059838645477413 0
0.83984375 0.29405173992684847 0
0.84375 0.2757378835269483 0
0.84765625 0.23422868088031593 0
0.8515625 0.2114602568502698 0
0.85546875 0.17353238799671478 0
0.859375 0.19700925366278962 0
0.86328125 0.1496865964273431 0
0.8671875 0.13209619582760998 0
0.87109375 0.0962707150170109 0
0.875 0.13651680168925015 0
0.87890625 0.07809057554728774 0
0.8828125 0.12642356261599288 0
0.88671875 0.08107923110200267 0
0.890625 0.08674468483233577 0
0.89453125 0.041920282238094075 0
0.8984375 0.011611327555432475 0
0.90234375 0.012229773561882665 0
0.90625 0.0063323865295787825 0
0.91015625 -0.005428753766067988 0
0.9140625 -0.029618572730839326 0
0.91796875 -0.020093394792011745 0
0.921875 -0.028685175128000798 0
0.92578125 -0.10216893866060807 0
0.9296875 -0.08474293540028058 0
0.93359375 -0.10446205861983154 0
0.9375 -0.16109556963954177 2
0.94140625 -0.14664365294487336 0
0.9453125 -0.08178087066346341 0
0.94921875 -0.008451076633389223 0
0.953125 0.08347720377646531 0
0.95703125 0.22269133072418526 0
0.9609375 0.421829697448395 0
0.96484375 0.6249278403685257 0
0.96875 0.7941407431434466 0
0.97265625 0.9209324509407498 0
0.9765625 1.1019365422487075 0
0.98046875 1.1593234466760893 3
0.984375 1.1020862201422965 0
0.98828125 1.0180203766876688 0
0.9921875 0.8970946943808373 0
0.99609375 0.6652310633106359 0
1.0 0.4856899526166677 0
1.00390625 0.2624060472383612 0
1.0078125 0.07400794289008132 0
1.01171875 -0.020061384497613403 0
1.015625 -0.16146068438504624 0
1.01953125 -0.18862504072646646 0
1.0234375 -0.24764442651891233 0
1.02734375 -0.2219288454434281 4
1.03125 -0.2336736483283962 0
1.03515625 -0.19557091870217955 0
1.0390625 -0.12638682547485178 0
1.04296875 -0.1322351309873647 0
1.046875 -0.08300715865445364 0
1.05078125 -0.02348737362543654 0
1.0546875 -0.044602032474473294 0
1.05859375 -0.02711754221032484 0
1.0625 0.01706189112299538 0
1.06640625 -0.01060224411258999 0
1.0703125 0.015433605807976591 0
1.07421875 0.049532666404262043 0
1.078125 0.05219809829171957 0
1.08203125 0.031436695062597976 0
1.0859375 0.05783543892590502 0
1.08984375 0.039258110065137033 0
1.09375 0.08064888998942103 0
1.09765625 0.04309247177937678 0
1.1015625 0.10737496374935321 0
1.10546875 0.10168706830676823 0
1.109375 0.08208338116595149 0
1.11328125 0.06861246932977755 0
1.1171875 0.08548930564837791 0
1.12109375 0.13948847336638553 0
1.125 0.10334242494828638 0
1.12890625 0.13443643004583716 0
1.1328125 0.1616346034682983 0
1.13671875 0.21486944431353733 0
1.140625 0.208136924164744 0
1.14453125 0.18858253371643477 0
1.1484375 0.25214773841210547 0
1.15234375 0.21457063710153998 0
1.15625 0.28839780651525726 0
1.16015625 0.31710733530983176 0
1.1640625 0.2820341982932142 0
1.16796875 0.31594262363929027 0
1.171875 0.3011330843350681 0
1.17578125 0.3319795822544707 0
1.1796875 0.33059420522440414 0
1.18359375 0.41802621119419464 0
1.1875 0.39523352197486716 0
1.19140625 0.38725605063875784 0
1.1953125 0.4270719166924628 0
1.19921875 0.3940411797911859 0
1.203125 0.44599214936825726 0
1.20703125 0.41668125832284975 0
1.2109375 0.4929293715161519 0
1.21484375 0.4646619800021216 0
1.21875 0.43966001224224616 0
1.22265625 0.47825701959556516 0
1.2265625 0.5015880132880729 5
1.23046875 0.5085669663238352 0
1.234375 0.47271277489180696 0
1.23828125 0.46983667446900734 0
1.2421875 0.4479790982962639 0
1.24609375 0.4775820994867742 0
1.25 0.45331240955832824 0
1.25390625 0.41118350211633603 0
1.2578125 0.4064405365383625 0
1.26171875 0.4235470299379606 0
1.265625 0.39824163363878035 0
1.26953125 0.3948276270846024 0
1.2734375 0.37754041361960816 0
1.27734375 0.3282097896024983 0
1.28125 0.3309612728336803 0
1.28515625 0.31143548256539827 0
1.2890625 0.31808562247771827 0
1.29296875 0.30419581072047686 0
1.296875 0.21825987279398051 0
1.30078125 0.26851748151481936 0
1.3046875 0.20374284995954167 0
1.30859375 0.1646299300523672 0
1.3125 0.20086523337454187 0
1.31640625 0.19544753611334403 0
1.3203125 0.11936185581876319 0
1.32421875 0.1433993442525001 0
1.328125 0.15338977467960213 0
1.33203125 0.15354852404271335 0
1.3359375 0.1135041816738616 0
1.33984375 0.08012939678732711 0
1.34375 0.0724383588941606 0
1.34765625 0.052897437196955575 0
1.3515625 0.09023866549748526 0
1.35546875 0.026345998146074974 0
1.359375 0.048261355938662896 0
1.36328125 0.010959799903964673 0
1.3671875 0.06129840414947161 0
1.37109375 0.06361297744332844 0
1.375 0.05981241317560004 0
1.37890625 0.03682247507801688 0
1.3828125 0.0248600392222843 0
1.38671875 0.05505047925447187 0
1.390625 0.05357551376775793 0
1.39453125 0.032911690567340585 0
1.3984375 0.02944911876507423 0
1.40234375 0.014190179656396509 0
1.40625 0.05745881025754148 0
1.41015625 0.04383418753139499 0
1.4140625 -0.01724848475377904 0
1.41796875 0.0389846342519128 0
1.421875 0.020123100339256836 0
1.42578125 0.0011827819637247779 0
1.4296875 0.04184022317353958 0
1.43359375 -0.016003496154350726 0
1.4375 0.02788706108973276 0
1.44140625 0.053501447802121904 0
1.4453125 0.024437362030234087 0
1.44921875 -0.011352841967680629 0
1.453125 0.04023227920226334 0
1.45703125 0.0574173496876091 0
1.4609375 -0.01843676428402634 0
1.46484375 0.012384401053431398 0
1.46875 -0.01576662556148408 0
1.47265625 0.05127501771613761 0
1.4765625 0.0534224579063495 0
1.48046875 0.032697073696400916 0
1.484375 0.05330834163217955 0
1.48828125 0.03409729304581944 0
1.4921875 -0.00899812438334694 0
1.49609375 0.04955779417993965 0
1.5 0.05975803662270211 0
1.50390625 0.0035558324516492545 0
1.5078125 0.007852185351919477 0
1.51171875 -0.008484864196134034 0
1.515625 0.026742460978129715 0
1.51953125 0.06107333989174603 0
1.5234375 0.01633202037188327 0
1.52734375 -0.003260822767009182 0
1.53125 -0.002905022778865375 0
1.53515625 0.04378424702378983 0
1.5390625 0.013759361966065028 0
1.54296875 0.04014588132253481 0
1.546875 0.05913205755305181 0
1.55078125 0.011160766030616217 0
1.5546875 0.037393919335198485 0
1.55859375 0.0154563661816513 0
1.5625 -0.00039651536003303123 0
1.56640625 0.004860058925044798 0
1.5703125 0.030784360952865998 0
1.57421875 0.03414099003558876 0
1.578125 0.07502454713343609 0
1.58203125 0.024907431292509916 0
1.5859375 0.0022181724668937086 0
1.58984375 0.03053147943198458 0
1.59375 0.04692843655042603 0
1.59765625 0.07619912104836497 0
1.6015625 0.046622402859315674 0
1.60546875 0.06850544661821892 0
1.609375 0.06517839269574963 0
1.61328125 0.02999183977053066 0
1.6171875 0.039949928999048624 0
1.62109375 0.032338532712281653 0
1.625 0.024038948201271837 0
1.62890625 0.022699398417374023 0
1.6328125 0.014779033621079657 0
1.63671875 0.03308698278809488 0
1.640625 0.07468353792748672 0
1.64453125 0.07639703406584625 0
1.6484375 0.036970775439336204 0
1.65234375 0.02382256567466679 0
1.65625 0.059780414861438244 0
1.66015625 0.037561741138544665 0
1.6640625 0.022879346957989086 0
1.66796875 0.02557288078122639 0
1.671875 0.025227241681685705 0
1.67578125 0.027685467014867363 0
1.6796875 0.014208018082580938 0
1.68359375 0.08668290745808585 0
1.6875 0.04225771168046502 0
1.69140625 0.033590316276355996 0
1.6953125 0.09804618889363467 0
1.69921875 0.0535930161133444 0
1.703125 0.060890149020092495 0
1.70703125 0.0326744406257291 0
1.7109375 0.06753874978667505 0
1.71484375 0.111834459358864 0
1.71875 0.044383526036714756 0
1.72265625 0.11450740693369763 0
1.7265625 0.06284910387336037 0
1.73046875 0.113819106093109 0
1.734375 0.15226038132380904 0
1.73828125 0.10858971847477779 0
1.7421875 0.1271075042746487 0
1.74609375 0.16265056969492664 0
1.75 0.15123892133609365 0
1.75390625 0.15195816627796319 0
1.7578125 0.2117775061940043 0
1.76171875 0.17796317003484236 0
1.765625 0.2560792089543416 0
1.76953125 0.21703862722411543 0
1.7734375 0.23558611315227782 0
1.77734375 0.2987268365522886 0
1.78125 0.29064830224516697 0
1.78515625 0.31826584429605165 0
1.7890625 0.2829090855252431 0
1.79296875 0.3072042030108965 0
1.796875 0.30986841636504703 0
1.80078125 0.29990887977424674 0
1.8046875 0.35423907770399543 1
1.80859375 0.34874535360084086 0
1.8125 0.32302659684723783 0
1.81640625 0.31813111965489765 0
1.8203125 0.2737262745470314 0
1.82421875 0.27257726151598166 0
1.828125 0.2921118719045884 0
1.83203125 0.30202282707683487 0
1.8359375 0.26643512156046495 0
1.83984375 0.26931623681925065 0
1.84375 0.2476900081818724 0
1.84765625 0.17592997067676439 0
1.8515625 0.16040442398983548 0
1.85546875 0.17911601399021299 0
1.859375 0.11492752504265508 0
1.86328125 0.1366871833774241 0
1.8671875 0.12440705568714333 0
1.87109375 0.13478452759827436 0
1.875 0.12488655751974664 0
1.87890625 0.08180805241474776 0
1.8828125 0.08142750322592678 0
1.88671875 0.06479192322237431 0
1.890625 0.030076129042645013 0
1.89453125 0.03115845446131043 0
1.8984375 0.02240825653350966 0
1.90234375 0.04204384636411189 0
1.90625 -0.021564504180285774 0
1.91015625 -0.047290353073192376 0
1.9140625 -0.06773591514320332 0
1.91796875 -0.08908999920504193 0
1.921875 -0.08767927439066978 2
1.92578125 -0.14642878526454306 0
1.9296875 -0.08619573824607715 0
1.93359375 -0.05959622016870708 0
1.9375 0.023026602339381832 0
1.94140625 0.21339362444081564 0
1.9453125 0.35154454890585807 0
1.94921875 0.5055717551021187 0
1.953125 0.7277018470828371 0
1.95703125 0.9123853606523762 0
1.9609375 1.002605619567475 0
1.96484375 1.1757043497099062 0
1.96875 1.164729710838632 3
1.97265625 1.0924849533991094 0
1.9765625 1.0040710287198704 0
1.98046875 0.834023608918565 0
1.984375 0.6871060681585972 0
1.98828125 0.4166724749382491 0
1.9921875 0.24366677140838622 0
1.99609375 0.0831872918322234 0
2.0 -0.03435279485370545 0
2.00390625 -0.18471807445444285 0
2.0078125 -0.26564024340802417 0
2.01171875 -0.31377766305553556 0
2.015625 -0.26527096375659803 4
2.01953125 -0.3110194803147665 0
2.0234375 -0.21054799253591439 0
2.02734375 -0.19520009421367318 0
2.03125 -0.15090919473669828 0
2.03515625 -0.145614414235167 0
2.0390625 -0.10028889999185739 0
2.04296875 -0.03956251901310516 0
2.046875 -0.03812056839979669 0
2.05078125 -0.025311877881810614 0
2.0546875 -0.01166136644259657 0
2.05859375 -0.014598326149286385 0
2.0625 0.031567816207121936 0
2.06640625 0.030069794783409647 0
2.0703125 -0.017429049180496783 0
2.07421875 0.018792226544258887 0
2.078125 0.009382550823425451 0
2.08203125 0.012735907756511502 0
2.0859375 0.023787797911685497 0
2.08984375 0.011137579116099302 0
2.09375 0.020255392569540103 0
2.09765625 0.026841119172207713 0
2.1015625 0.07554700783055905 0
2.10546875 0.06272614847600246 0
2.109375 0.052231929460969516 0
2.11328125 0.07972151415840827 0
2.1171875 0.07127820984135766 0
2.12109375 0.12314728346588424 0
2.125 0.09780084753168816 0
2.12890625 0.1769910758694887 0
2.1328125 0.1875158640146804 0
2.13671875 0.18962137961280856 0
2.140625 0.17482114726998096 0
2.14453125 0.1683624077205792 0
2.1484375 0.25949810067009754 0
2.15234375 0.236496979068015 0
2.15625 0.2274967487898783 0
2.16015625 0.29105979483111055 0
2.1640625 0.25205733710784506 0
2.16796875 0.2998079901557946 0
2.171875 0.32164891111929617 0
2.17578125 0.3684157889917359 0
2.1796875 0.33873212956397936 0
2.18359375 0.38964713157758046 0
2.1875 0.3794889780773832 0
2.19140625 0.4205739331653161 0
2.1953125 0.4139987630564379 0
2.19921875 0.4500226885272523 0
2.203125 0.38955363038927343 0
2.20703125 0.42651842527934675 0
2.2109375 0.4671976362354554 0
2.21484375 0.4115142814946733 0
2.21875 0.4639411511805904 0
2.22265625 0.4106002439343507 5
2.2265625 0.4540533230370458 0
2.23046875 0.4264951204777348 0
2.234375 0.39461853898506344 0
2.23828125 0.41540549797035875 0
2.2421875 0.3977928845093961 0
2.24609375 0.40028667659436484 0
2.25 0.3585684012687087 0
2.25390625 0.36124505121662465 0
2.2578125 0.33612144537095506 0
2.26171875 0.36818714617577225 0
2.265625 0.3686585820330316 0
2.26953125 0.31201562020515866 0
2.2734375 0.3430866814067053 0
2.27734375 0.28732541595966665 0
2.28125 0.2676626508408727 0
2.28515625 0.2745871832073375 0
2.2890625 0.23631675225799237 0
2.29296875 0.18307335054164287 0
2.296875 0.1963600430202052 0
2.30078125 0.17915095364561423 0
2.3046875 0.169636590987121 0
2.30859375 0.1408131142059676 0
2.3125 0.13038416556487534 0
2.31640625 0.12244371725411071 0
2.3203125 0.14151085015918782 0
2.32421875 0.09824093760052646 0
2.328125 0.08558856271355511 0
2.33203125 0.07222220774842186 0
2.3359375 0.05362728976407839 0
2.33984375 0.010435187138313904 0
2.34375 0.03924871693193719 0
2.34765625 0.004203905849599749 0
2.3515625 0.037919452701219054 0
2.35546875 -0.036289352502092045 0
2.359375 -0.02361296954496284 0
2.36328125 -0.008718811476399755 0
2.3671875 -0.032369655727412946 0
2.37109375 -0.006112412196574487 0
2.375 -0.020435576837379642 0
2.37890625 -0.026749008738847356 0
2.3828125 -0.04412009597613534 0
2.38671875 -0.021950065059019367 0
2.390625 -0.03329497053164981 0
2.39453125 -0.05564875790734098 0
2.3984375 -0.06991890625168255 0
2.40234375 -0.04038877735441759 0
2.40625 -0.052786140301253406 0
2.41015625 -0.053163420138424164 0
2.4140625 -0.06354878146142404 0
2.41796875 -0.08270716282664305 0
2.421875 -0.059424217784315746 0
2.42578125 -0.021639382254002283 0
2.4296875 -0.08355756517998889 0
2.43359375 -0.036683729058742905 0
2.4375 -0.07429216269909596 0
2.44140625 -0.046990331071019145 0
2.4453125 -0.030396490400424806 0
2.44921875 -0.07596255210794606 0
2.453125 -0.055164635564893684 0
2.45703125 -0.08527375740658347 0
2.4609375 -0.07561199639559874 0
2.46484375 -0.05640757791683467 0
2.46875 -0.05454160064659816 0
2.47265625 -0.03924597100231834 0
2.4765625 -0.04302429806630808 0
2.48046875 -0.08331938068971223 0
2.484375 -0.07794439849835447 0
2.48828125 -0.018573400416563142 0
2.4921875 -0.05436308698204904 0
2.49609375 -0.07330442911887652 0
2.5 -0.03840829579505008 0
2.50390625 -0.04063471013650541 0
2.5078125 -0.08155915066480554 0
2.51171875 -0.0717345914613472 0
2.515625 -0.04295492937459579 0
2.51953125 -0.03693634396326215 0
2.5234375 -0.052917283217312025 0
2.52734375 -0.03799209019053768 0
2.53125 -0.07682233748078057 0
2.53515625 -0.065643775474669 0
2.5390625 -0.021285606977933656 0
2.54296875 -0.03051873705018659 0
2.546875 -0.08509057530349301 0
2.55078125 -0.047402706587793594 0
2.5546875 -0.050526642231032155 0
2.55859375 -0.05394860887432687 0
2.5625 -0.014285325758113636 0
2.56640625 -0.07999552276150576 0
2.5703125 -0.07131995782577473 0
2.57421875 -0.026583878694053164 0
2.578125 -0.04812948821452355 0
2.58203125 -0.0852121824179558 0
2.5859375 -0.07826785207718434 0
2.58984375 -0.07471294871844703 0
2.59375 -0.04724857654173239 0
2.59765625 -0.08333686248333474 0
2.6015625 -0.04339008135099529 0
2.60546875 -0.06692101851595432 0
2.609375 -0.07714971443211917 0
2.61328125 -0.08293492946445616 0
2.6171875 -0.05627592716513464 0
2.62109375 -0.028518967099057803 0
2.625 -0.037813684132582785 0
2.62890625 -0.05041779275200442 0
2.6328125 -0.04096629237417511 0
2.63671875 -0.02970150542492936 0
2.640625 -0.046387409127858305 0
2.64453125 -0.07543335675859582 0
2.6484375 -0.040320654197541266 0
2.65234375 -0.04832264573955181 0
2.65625 -0.011692750684685692 0
2.66015625 -0.06938109200495884 0
2.6640625 -0.06139458318586781 0
2.66796875 -0.038853588012268944 0
2.671875 -0.059667375763166726 0
2.67578125 -0.05828204510502771 0
2.6796875 -0.052105469964338375 0
2.68359375 -0.02745343126676302 0
2.6875 -0.05364981553644334 0
2.69140625 -0.007059386715330768 0
2.6953125 -0.007568510045635517 0
2.69921875 -0.06262006975134893 0
2.703125 -0.044048538985204624 0
2.70703125 -0.040866737671537576 0
2.7109375 -0.017118377246455832 0
2.71484375 -0.013273193397001701 0
2.71875 -0.01942536082516408 0
2.72265625 -0.015441864419462888 0
2.7265625 0.005130213113899912 0
2.73046875 -0.011458911469890828 0
2.734375 0.01346865138158826 0
2.73828125 -0.04058378166868411 0
2.7421875 -0.005021771712410979 0
2.74609375 0.0404611327867953 0
2.75 -0.021679135144348244 0
2.75390625 0.031515596674736475 0
2.7578125 0.057931622799167415 0
2.76171875 0.008199341562262479 0
2.765625 0.05601298131732275 0
2.76953125 0.08733693067529805 0
2.7734375 0.10341148892923199 0
2.77734375 0.10320445394705358 0
2.78125 0.08847232905909844 0
2.78515625 0.144866181405255 0
2.7890625 0.14843227530715677 0
2.79296875 0.14281516206719666 0
2.796875 0.18188744503220802 0
2.80078125 0.1600020761675392 0
2.8046875 0.23116501675306333 0
2.80859375 0.24617450470993116 0
2.8125 0.20454788891665154 0
2.81640625 0.20863134168533082 0
2.8203125 0.27017550543307545 0
2.82421875 0.23523648019317464 1
2.828125 0.2569403186324877 0
2.83203125 0.2078001991284274 0
2.8359375 0.22118958936860245 0
2.83984375 0.22625614349556517 0
2.84375 0.1979032686652473 0
2.84765625 0.1664202554138765 0
2.8515625 0.16849664431734032 0
2.85546875 0.15390098530022353 0
2.859375 0.14249715474795238 0
2.86328125 0.15995524366805433 0
2.8671875 0.07954327122313656 0
2.87109375 0.06482283630719965 0
2.875 0.06203007477486399 0
2.87890625 0.099908276611687 0
2.8828125 0.08090087416361941 0
2.88671875 0.021756858140233537 0
2.890625 0.023780059886772623 0
2.89453125 0.008113367343271824 0
2.8984375 0.008265296616257111 0
2.90234375 -0.019647346694757702 0
2.90625 0.005801718923316802 0
2.91015625 -0.06514533377124825 0
2.9140625 -0.042559343595496804 0
2.91796875 -0.03068429931176517 0
2.921875 -0.10008043266930443 0
2.92578125 -0.06702429189808402 0
2.9296875 -0.14363340351063666 0
2.93359375 -0.168045029965662 0
2.9375 -0.21358732769502506 0
2.94140625 -0.18417757121769854 0
2.9453125 -0.19481156920260648 0
2.94921875 -0.20604016646958206 2
2.953125 -0.21816984921388488 0
2.95703125 -0.16974208577696262 0
2.9609375 -0.13386438782418103 0
2.96484375 -0.021405350177851508 0
2.96875 0.08885416583797992 0
2.97265625 0.19190597078786004 0
2.9765625 0.39305262406471203 0
2.98046875 0.5883235019193717 0
2.984375 0.8134871899663417 0
2.98828125 0.9699237731992306 0
2.9921875 1.0708059317377228 0
2.99609375 1.1021781649388689 3
3.0 1.081314229213753 0
3.00390625 1.0014548549590703 0
3.0078125 0.8184411453017383 0
3.01171875 0.669033937673407 0
3.015625 0.4001436199398209 0
3.01953125 0.23881842952887397 0
3.0234375 0.05544814362855112 0
3.02734375 -0.11652429957436237 0
3.03125 -0.2190466009633798 0
3.03515625 -0.3106447538614532 0
3.0390625 -0.31905256968341095 0
3.04296875 -0.39126150938074106 4
3.046875 -0.35883440913032005 0
3.05078125 -0.2805298557938467 0
3.0546875 -0.3095073431282087 0
3.05859375 -0.26160326605724715 0
3.0625 -0.21281009427612968 0
3.06640625 -0.13406802569201093 0
3.0703125 -0.140760777691775 0
3.07421875 -0.10018253635593347 0
3.078125 -0.06733987817710516 0
3.08203125 -0.04271794266654505 0
3.0859375 -0.03792009704590851 0
3.08984375 -0.052869181862281026 0
3.09375 -0.09585405321830656 0
3.09765625 -0.09248077035177033 0
3.1015625 -0.08224630899766722 0
3.10546875 -0.017746342337128285 0
3.109375 -0.07082946880304924 0
3.11328125 -0.022261052072953973 0
3.1171875 -0.0064959310844120745 0
3.12109375 -0.02522889926485421 0
3.125 -0.007422222952924218 0
3.12890625 0.02820538126662339 0
3.1328125 0.024403789211402557 0
3.13671875 -0.014670196266182375 0
3.140625 0.011595726022739226 0
3.14453125 0.03601711752979665 0
3.1484375 0.01524205007791457 0
3.15234375 0.09937120230857356 0
3.15625 0.04283499915573616 0
3.16015625 0.05247965772652807 0
3.1640625 0.09359094090336946 0
3.16796875 0.11475805298984013 0
3.171875 0.1676775495661172 0
3.17578125 0.1790781574314234 0
3.1796875 0.20551034848593863 0
3.18359375 0.2060853518695745 0
3.1875 0.18220628901957897 0
3.19140625 0.20028115907480393 0
3.1953125 0.23114099094562196 0
3.19921875 0.2583196549418356 0
3.203125 0.3040216517260396 0
3.20703125 0.24114978222033484 0
3.2109375 0.2574501081811472 0
3.21484375 0.30678558467153627 0
3.21875 0.3048301697496812 0
3.22265625 0.34895495986705677 0
3.2265625 0.3705994641570764 0
3.23046875 0.3786295850117901 0
3.234375 0.31623695113571365 0
3.23828125 0.37788483756723057 0
3.2421875 0.3690239071330545 0
3.24609375 0.35109753537897315 0
3.25 0.34002323335614576 5
3.25390625 0.40183903377983204 0
3.2578125 0.36566282269194794 0
3.26171875 0.34924624024675477 0
3.265625 0.31872681194753294 0
3.26953125 0.34983398834915574 0
3.2734375 0.3265752251993049 0
3.27734375 0.29007415545740434 0
3.28125 0.3354452142841997 0
3.28515625 0.3341731008531762 0
3.2890625 0.30850575854381374 0
3.29296875 0.2810014922365334 0
3.296875 0.241093841521405 0
3.30078125 0.267377333466757 0
3.3046875 0.22706564212367886 0
3.30859375 0.23688208321388327 0
3.3125 0.1923146155189223 0
3.31640625 0.1939183050277049 0
3.3203125 0.1341043021733566 0
3.32421875 0.09607092833930864 0
3.328125 0.1398079035188413 0
3.33203125 0.06611996921319849 0
3.3359375 0.06429472517060472 0
3.33984375 0.09544843893745991 0
3.34375 0.06943962961886603 0
3.34765625 -0.001008081077789054 0
3.3515625 0.044270064928605246 0
3.35546875 0.017845224640815928 0
3.359375 -0.01535607136174995 0
3.36328125 0.01079182362195441 0
3.3671875 -0.04207810917778499 0
3.37109375 -0.06895906583435255 0
3.375 -0.01823086231865017 0
3.37890625 -0.07480441159974681 0
3.3828125 -0.09364590210762017 0
3.38671875 -0.08565432825729938 0
3.390625 -0.06179201122807735 0
3.39453125 -0.061485598527373966 0
3.3984375 -0.11481504511906199 0
3.40234375 -0.092656964924258 0
3.40625 -0.13892192765317607 0
3.41015625 -0.09713706508061501 0
3.4140625 -0.08033314613001276 0
3.41796875 -0.14357505699474718 0
3.421875 -0.1288410593567948 0
3.42578125 -0.07719795103027675 0
3.4296875 -0.08423578884315489 0
3.43359375 -0.08377838391060441 0
3.4375 -0.15646283155484964 0
3.44140625 -0.12519089211098497 0
3.4453125 -0.15325797045320888 0
3.44921875 -0.126936599201271 0
3.453125 -0.13905125425559464 0
3.45703125 -0.12213122381026419 0
3.4609375 -0.09251097683568285 0
3.46484375 -0.11227511867060118 0
3.46875 -0.15160901927549347 0
3.47265625 -0.16003969314291713 0
3.4765625 -0.1489245745958283 0
3.48046875 -0.13813050242167152 0
3.484375 -0.09607984434696469 0
3.48828125 -0.11711286036238347 0
3.4921875 -0.1454116301480305 0
3.49609375 -0.09523924133427489 0
3.5 -0.13690715303960813 0
3.50390625 -0.08970428315803468 0
3.5078125 -0.10850100488449589 0
3.51171875 -0.09040411352448793 0
3.515625 -0.14307866196477134 0
3.51953125 -0.12564080674363115 0
3.5234375 -0.09831115016867224 0
3.52734375 -0.1468004001232272 0
3.53125 -0.09418695466665125 0
3.53515625 -0.09533632970829894 0
3.5390625 -0.08013447824651618 0
3.54296875 -0.11512670874155577 0
3.546875 -0.08185097878398871 0
3.55078125 -0.13481211450281974 0
3.5546875 -0.07519915029594074 0
3.55859375 -0.14141978262333266 0
3.5625 -0.11787593085343744 0
3.56640625 -0.07646308757616109 0
3.5703125 -0.11998626357385411 0
3.57421875 -0.10904344311810074 0
3.578125 -0.09214994022845 0
3.58203125 -0.06825435427132229 0
3.5859375 -0.08162814817631164 0
3.58984375 -0.10320753140867076 0
3.59375 -0.10755996669586221 0
3.59765625 -0.10048438077378855 0
3.6015625 -0.10180322787645633 0
3.60546875 -0.13109825385321616 0
3.609375 -0.14263499433424523 0
3.61328125 -0.09258118362541923 0
3.6171875 -0.0991810143651094 0
3.62109375 -0.0904006395167107 0
3.625 -0.07404313993356057 0
3.62890625 -0.11413049396530696 0
3.6328125 -0.11036971964230444 0
3.63671875 -0.1180536139128327 0
3.640625 -0.12879787226813555 0
3.64453125 -0.06209746632500404 0
3.6484375 -0.06633183676545898 0
3.65234375 -0.06874107438318448 0
3.65625 -0.0788882695364628 0
3.66015625 -0.061940945301179884 0
3.6640625 -0.078437461873809 0
3.66796875 -0.09284836301026211 0
3.671875 -0.12213448090438972 0
3.67578125 -0.09077912363792669 0
3.6796875 -0.09560106766801554 0
3.68359375 -0.11946808042322625 0
3.6875 -0.06982687949677416 0
3.69140625 -0.1234962818483108 0
3.6953125 -0.07615422821192833 0
3.69921875 -0.08276501012379438 0
3.703125 -0.1044502848835802 0
3.70703125 -0.12116045514809066 0
3.7109375 -0.06270887641634744 0
3.71484375 -0.06324842879309465 0
3.71875 -0.0642511500404819 0
3.72265625 -0.05965524523058188 0
3.7265625 -0.09630701173917622 0
3.73046875 -0.05722770785201879 0
3.734375 -0.09613577459342731 0
3.73828125 -0.0912497860505917 0
3.7421875 -0.07233368116042799 0
3.74609375 -0.07956327671900536 0
3.75 -0.04823221611906414 0
3.75390625 -0.04131365933770585 0
3.7578125 -0.026633047644126107 0
3.76171875 -0.08388567718355378 0
3.765625 -0.08116941956884996 0
3.76953125 -0.031904694053434844 0
3.7734375 -0.03437643434413548 0
3.77734375 -0.050254599829244066 0
3.78125 -0.018966385388795387 0
3.78515625 -0.034396174413075256 0
3.7890625 0.01948486156699728 0
3.79296875 0.0683412473498902 0
3.796875 0.07001206095884918 0
3.80078125 0.03855799865133188 0
3.8046875 0.04542601875991171 0
3.80859375 0.09468864097317178 0
3.8125 0.09739661747008121 0
3.81640625 0.1563525056227929 0
3.8203125 0.17910668882024713 0
3.82421875 0.1627664832249189 0
3.828125 0.20939499228925273 0
3.83203125 0.18366200779869918 0
3.8359375 0.1603194692009467 0
3.83984375 0.17082284552011226 0
3.84375 0.18942230126431658 0
3.84765625 0.2231175750466681 1
3.8515625 0.2067724812204156 0
3.85546875 0.20399000933183095 0
3.859375 0.23579448949469334 0
3.86328125 0.17732408688885898 0
3.8671875 0.21212769152113184 0
3.87109375 0.164200775629836 0
3.875 0.15529625845714315 0
3.87890625 0.1071374591298927 0
3.8828125 0.08900094846530904 0
3.88671875 0.0769432770289589 0
3.890625 0.0873080534983542 0
3.89453125 0.08549811496679571 0
3.8984375 0.06660518385058332 0
3.90234375 0.04515833468233715 0
3.90625 -0.006086591013931927 0
3.91015625 -0.012008540750530254 0
3.9140625 -0.013694981763867815 0
3.91796875 -0.006251983929713087 0
3.921875 -0.03043284200510333 0
3.92578125 -0.0025604043706941373 0
3.9296875 -0.06004843046162641 0
3.93359375 -0.02794764954660651 0
3.9375 -0.09267253761991007 0
3.94140625 -0.09763925483232853 0
3.9453125 -0.07022674870635687 0
3.94921875 -0.13882586385985887 0
3.953125 -0.11329367786519998 0
3.95703125 -0.14119261132715846 0
3.9609375 -0.17528387168284257 0
3.96484375 -0.22426895226777394 0
3.96875 -0.2457567209615928 0
3.97265625 -0.22165303906986475 2
3.9765625 -0.2303699530448044 0
3.98046875 -0.2357134677853885 0
3.984375 -0.11995323459309043 0
3.98828125 -0.05629476663469865 0
3.9921875 0.06767882097264323 0
3.99609375 0.20182216817776097 0
4.0 0.36011672575835 0
4.00390625 0.5386926948831563 0
4.0078125 0.7636153531789633 0
4.01171875 0.8949457415993537 0
4.015625 1.0509206490746938 0
4.01953125 1.0938516386788733 3
4.0234375 1.0935501209298837 0
4.02734375 1.0073520866604628 0
4.03125 0.7927772109670992 0
4.03515625 0.6080163366802299 0
4.0390625 0.43032099492287257 0
4.04296875 0.19816731363361534 0
4.046875 0.0007824293745359243 0
4.05078125 -0.11000368118887317 0
4.0546875 -0.167579303669711 0
4.05859375 -0.2977391170568053 0
4.0625 -0.29917326906876657 0
4.06640625 -0.3388234546668494 4
4.0703125 -0.2697441997703387 0
4.07421875 -0.26315341161923844 0
4.078125 -0.22175173063066178 0
4.08203125 -0.1409114150884186 0
4.0859375 -0.15725901435109213 0
4.08984375 -0.11672726646012492 0
4.09375 -0.09012761204351216 0
4.09765625 -0.044115835294642004 0
4.1015625 -0.06730818724906004 0
4.10546875 -0.05117289400183786 0
4.109375 -0.008421911568984454 0
4.11328125 -0.018584777439334312 0
4.1171875 0.013509650804553745 0
4.12109375 -0.03225562289945179 0
4.125 -0.007664322017676952 0
4.12890625 0.037389581291921 0
4.1328125 -0.013118152924021988 0
4.13671875 0.05225331333896485 0
4.140625 0.055858670905439146 0
4.14453125 0.05698675468692739 0
4.1484375 0.03160135502105716 0
4.15234375 0.03330147879461155 0
4.15625 0.032409780341998956 0
4.16015625 0.07090239806851117 0
4.1640625 0.09489545217105537 0
4.16796875 0.12642475806132766 0
4.171875 0.12973941028488087 0
4.17578125 0.13095058253678735 0
4.1796875 0.17113882132830036 0
4.18359375 0.14753167748556795 0
4.1875 0.14705283811482464 0
4.19140625 0.21926197299357403 0
4.1953125 0.18360830669634065 0
4.19921875 0.2023867460372733 0
4.203125 0.2451301538318712 0
4.20703125 0.26117369386585365 0
4.2109375 0.25281492628115976 0
4.21484375 0.2820206491315066 0
4.21875 0.34237635650478615 0
4.22265625 0.3056219582968275 0
4.2265625 0.3031244499864477 0
4.23046875 0.3197017777144532 0
4.234375 0.3894290251207875 0
4.23828125 0.3593367118133487 0
4.2421875 0.4019263385889975 0
4.24609375 0.3683704211710483 0
4.25 0.390902508216471 0
4.25390625 0.4447643430231347 0
4.2578125 0.42654939481694454 0
4.26171875 0.3819912240209915 5
4.265625 0.3996155164845437 0
4.26953125 0.3970040926078148 0
4.2734375 0.38972655875009565 0
4.27734375 0.4235732961907499 0
4.28125 0.35701680493958243 0
4.28515625 0.3570965744875514 0
4.2890625 0.3489743685449555 0
4.29296875 0.34708959715600035 0
4.296875 0.3293953558992915 0
4.30078125 0.3158971729997553 0
4.3046875 0.34138644679971614 0
4.30859375 0.28012180179748336 0
4.3125 0.2618307138723336 0
4.31640625 0.24440260405187628 0
4.3203125 0.22758024990921474 0
4.32421875 0.22989432824923375 0
4.328125 0.24941953754660812 0
4.33203125 0.2343255813600819 0
4.3359375 0.18262350466554578 0
4.33984375 0.16401685381818518 0
4.34375 0.12356649801781287 0
4.34765625 0.1227639585874456 0
4.3515625 0.11290134342240682 0
4.35546875 0.1173951570272309 0
4.359375 0.060213946255315356 0
4.36328125 0.06443354149022867 0
4.3671875 0.07071098835214203 0
4.37109375 0.018261762305237607 0
4.375 0.022705833669787446 0
4.37890625 0.03209867142344045 0
4.3828125 0.04693437641757994 0
4.38671875 0.02133631842847389 0
4.390625 -0.001933016481123491 0
4.39453125 -0.005314274806081927 0
4.3984375 0.007092454512730979 0
4.40234375 0.015267020222263894 0
4.40625 -0.002802343223399761 0
4.41015625 -0.01052174489353175 0
4.4140625 -0.029776078905648835 0
4.41796875 -0.0654827873921959 0
4.421875 0.0076860420167486135 0
4.42578125 -0.018631453770620136 0
4.4296875 -0.010168347110903048 0
4.43359375 -0.023089148122587028 0
4.4375 -0.05245522284084171 0
4.44140625 -0.029024084522317983 0
4.4453125 -0.05129245205830221 0
4.44921875 -0.005439476513304724 0
4.453125 -0.047137490811302626 0
4.45703125 -0.00876244950248099 0
4.4609375 -0.04041937100233633 0
4.46484375 -0.07483587591613437 0
4.46875 -0.07053316970981982 0
4.47265625 -0.04849903349685139 0
4.4765625 -0.015871813320844988 0
4.48046875 -0.06029207999841888 0
4.484375 -0.06394713149406066 0
4.48828125 -0.036331015719645164 0
4.4921875 -0.0405328306297118 0
4.49609375 -0.0402388938971094 0
4.5 -0.06154266117599604 0
4.50390625 -0.07020151236763283 0
4.5078125 -0.03015346048843215 0
4.51171875 -0.047082206786938925 0
4.515625 -0.033998973392478905 0
4.51953125 -0.016817722590868722 0
4.5234375 -0.012130542824474268 0
4.52734375 -0.010657402839645658 0
4.53125 0.0062486964158868855 0
4.53515625 0.0063308622622256505 0
4.5390625 -0.030715367240548797 0
4.54296875 0.007243823368548948 0
4.546875 -0.021035927418992035 0
4.55078125 0.007455084436004976 0
4.5546875 0.004986895746660284 0
4.55859375 -0.00845802333106519 0
4.5625 -0.028194168278657207 0
4.56640625 -0.0469901180708778 0
4.5703125 -0.025474611736150992 0
4.57421875 0.019988141320949636 0
4.578125 -0.04496133542953933 0
4.58203125 -0.03622203295495062 0
4.5859375 -0.02989094882567274 0
4.58984375 0.009334106955073009 0
4.59375 -0.010322163689777262 0
4.59765625 0.004911513174450953 0
4.6015625 -0.033238991973441115 0
4.60546875 0.01498310781870851 0
4.609375 0.01008323029736849 0
4.61328125 -0.027773138717498556 0
4.6171875 0.01341000140318565 0
4.62109375 -0.002153680895003716 0
4.625 -0.03664278562634409 0
4.62890625 -0.031474833157524515 0
4.6328125 0.02284501021399836 0
4.63671875 0.021284439653302813 0
4.640625 0.028549403999169755 0
4.64453125 -0.03541955569758927 0
4.6484375 -0.019956688326409885 0
4.65234375 -0.009974664735363308 0
4.65625 0.01501422355602237 0
4.66015625 0.02031968160054384 0
4.6640625 0.019412377604711175 0
4.66796875 -0.03290810525731782 0
4.671875 0.03832955716404328 0
4.67578125 0.010112158934498468 0
4.6796875 -0.032918872215447335 0
4.68359375 -0.0184771727956847 0
4.6875 -0.028019196941340377 0
4.69140625 0.014231614924554433 0
4.6953125 0.0259232085240208 0
4.69921875 -0.030024637552557083 0
4.703125 0.020018667450513505 0
4.70703125 -0.013634719618943119 0
4.7109375 0.004533964050989263 0
4.71484375 -0.022252423395902346 0
4.71875 0.03972329799309064 0
4.72265625 0.034718578226609224 0
4.7265625 -0.011522540763150318 0
4.73046875 0.01696049861481439 0
4.734375 0.004694817227497476 0
4.73828125 0.0249229023762093 0
4.7421875 0.06193688269338901 0
4.74609375 0.025541350816882184 0
4.75 0.04764330003512338 0
4.75390625 0.051790816975468654 0
4.7578125 0.014734268415949832 0
4.76171875 0.024496413475010033 0
4.765625 0.08982909631793473 0
4.76953125 0.11809780504508728 0
4.7734375 0.11828451676588866 0
4.77734375 0.11057910156399377 0
4.78125 0.1325287479291884 0
4.78515625 0.14865916740299787 0
4.7890625 0.11498646376163421 0
4.79296875 0.16733932445659466 0
4.796875 0.1480093888319962 0
4.80078125 0.16770740804619952 0
4.8046875 0.2562199979780344 0
4.80859375 0.21871452537181788 0
4.8125 0.2483986214971254 0
4.81640625 0.24178239108912217 0
4.8203125 0.304416721231691 0
4.82421875 0.29755957102679764 0
4.828125 0.32487934834382876 0
4.83203125 0.28450953132035983 0
4.8359375 0.29219541027149765 1
4.83984375 0.3201908183876551 0
4.84375 0.3266525883387864 0
4.84765625 0.2775428271368515 0
4.8515625 0.2539441119029253 0
4.85546875 0.28293358853797573 0
4.859375 0.2792965318710081 0
4.86328125 0.27306347082842175 0
4.8671875 0.24045688365783024 0
4.87109375 0.22461329975746283 0
4.875 0.19969757368572466 0
4.87890625 0.20818096584994314 0
4.8828125 0.1809890250628243 0
4.88671875 0.12921733285803128 0
4.890625 0.13304226810650296 0
4.89453125 0.1454896835670075 0
4.8984375 0.12656183923963124 0
4.90234375 0.10549989436377316 0
4.90625 0.0568336120248835 0
4.91015625 0.0697905396972244 0
4.9140625 0.03523134333419614 0
4.91796875 0.0460217879785966 0
4.921875 0.029768716200196957 0
4.92578125 0.018815407092227558 0
4.9296875 -0.017645858912565628 0
4.93359375 0.040287102976090144 0
4.9375 -0.019742306806472022 0
4.94140625 -0.08337855180510059 0
4.9453125 -0.04263905610098565 0
4.94921875 -0.06390873852563474 0
4.953125 -0.1123047078337457 0
4.95703125 -0.15883730853775327 2
4.9609375 -0.1341317509766653 0
4.96484375 -0.08852194132765027 0
4.96875 0.0013708610956997842 0
4.97265625 0.08725094754104867 0
4.9765625 0.23183716508128918 0
4.98046875 0.41265036713631764 0
4.984375 0.6187528526067066 0
4.98828125 0.786721363887929 0
4.9921875 0.971812002474554 0
4.99609375 1.0628298658627306 0
5.0 1.1784602586117372 3
5.00390625 1.1723311795335287 0
5.0078125 1.0470226947705448 0
5.01171875 0.8810743823373477 0
5.015625 0.69752667407605 0
5.01953125 0.5448992658941416 0
5.0234375 0.3175213161814096 0
5.02734375 0.10224511260692447 0
5.03125 -0.038000626793600174 0
5.03515625 -0.13403514205970976 0
5.0390625 -0.22216900422195027 0
5.04296875 -0.2131136500673859 0
5.046875 -0.2827374202083084 4
5.05078125 -0.23172221056215497 0
5.0546875 -0.2059626739605957 0
5.05859375 -0.12867454610239845 0
5.0625 -0.09115435430010602 0
5.06640625 -0.06864607294300248 0
5.0703125 -0.011242452056360895 0
5.07421875 -0.035708978466088906 0
5.078125 -0.03193570756563674 0
5.08203125 0.05517640021764979 0
5.0859375 0.04329879067285518 0
5.08984375 0.006395139021998137 0
5.09375 0.07748711375925127 0
5.09765625 0.0622805391682367 0
5.1015625 0.03513257362373824 0
5.10546875 0.07739129488437411 0
5.109375 0.06543578586009396 0
5.11328125 0.059584905888822044 0
5.1171875 0.05104664651745565 0
5.12109375 0.11434616530872499 0
5.125 0.06799503859709582 0
5.12890625 0.10085261760978577 0
5.1328125 0.10639832936416772 0
5.13671875 0.0908542910263273 0
5.140625 0.11903240919973937 0
5.14453125 0.1812043731221824 0
5.1484375 0.18564923040025605 0
5.15234375 0.20811781594795498 0
5.15625 0.16108560590730284 0
5.16015625 0.1740960597019342 0
5.1640625 0.22717151156670254 0
5.16796875 0.2232222457460525 0
5.171875 0.21106051832921136 0
5.17578125 0.2559216054252033 0
5.1796875 0.25095303753149023 0
5.18359375 0.28106190870981096 0
5.1875 0.3028419653717213 0
5.19140625 0.32638936428131976 0
5.1953125 0.37362529905794706 0
5.19921875 0.36546199014361297 0
5.203125 0.4042100837931958 0
5.20703125 0.3595653583410213 0
5.2109375 0.43460141079736714 0
5.21484375 0.4195945422830506 0
5.21875 0.4549687807416205 0
5.22265625 0.4809339793035088 0
5.2265625 0.4838297247150521 0
5.23046875 0.4410249107610163 0
5.234375 0.44787128782646646 0
5.23828125 0.4671580305780231 0
5.2421875 0.4972243133566511 0
5.24609375 0.45588201220775737 5
5.25 0.4997289179433852 0
5.25390625 0.47661389674466875 0
5.2578125 0.4564608603448704 0
5.26171875 0.46818190990227027 0
5.265625 0.43397160043124194 0
5.26953125 0.4768391769846343 0
5.2734375 0.41387402332395035 0
5.27734375 0.4151733890349138 0
5.28125 0.38924059033563985 0
5.28515625 0.38283602931624033 0
5.2890625 0.38721889588939684 0
5.29296875 0.3736995324606567 0
5.296875 0.35452179554463265 0
5.30078125 0.352814291279105 0
5.3046875 0.3146655445029307 0
5.30859375 0.3248741311880745 0
5.3125 0.2703939115000299 0
5.31640625 0.2891543183278043 0
5.3203125 0.21509905844018837 0
5.32421875 0.20532076608756655 0
5.328125 0.2246102541951599 0
5.33203125 0.19522629326234212 0
5.3359375 0.1874304327538483 0
5.33984375 0.15940432400926788 0
5.34375 0.1551180762625136 0
5.34765625 0.13681131650477377 0
5.3515625 0.14301627903706926 0
5.35546875 0.10165412917011676 0
5.359375 0.10256016800999757 0
5.36328125 0.09324734882980965 0
5.3671875 0.1053753785552119 0
5.37109375 0.04111548115741827 0
5.375 0.084553554115709 0
5.37890625 0.09588253541477748 0
5.3828125 0.07958192454908762 0
5.38671875 0.04599680847266274 0
5.390625 0.07874080588798435 0
5.39453125 0.022257779037935018 0
5.3984375 0.041451631325528523 0
5.40234375 0.06964061773161427 0
5.40625 -0.0029914955005581473 0
5.41015625 0.05101512476487483 0
5.4140625 -0.0018061749686018001 0
5.41796875 0.033946577222963015 0
5.421875 0.0020411331547434027 0
5.42578125 -0.003635276974137798 0
5.4296875 0.036681499463805355 0
5.43359375 0.031434697060187214 0
5.4375 0.040089393303077224 0
5.44140625 0.01426575219720038 0
5.4453125 -0.005037194471503217 0
5.44921875 0.05366191075450448 0
5.453125 0.01030331688851733 0
5.45703125 0.051545101015272876 0
5.4609375 0.0275776380434226 0
5.46484375 0.040919375018216006 0
5.46875 0.05473966446932531 0
5.47265625 0.057019154735956694 0
5.4765625 -0.011385557465336607 0
5.48046875 -0.0033490766930156304 0
5.484375 -0.015091295883319117 0
5.48828125 0.001363028784645632 0
5.4921875 0.05934169493414123 0
5.49609375 0.027725862045994275 0
5.5 0.05452214406935897 0
5.50390625 0.03044748644083922 0
5.5078125 0.0015736854303015045 0
5.51171875 -0.008219367111667798 0
5.515625 0.06358160301397184 0
5.51953125 0.03524066597413868 0
5.5234375 0.03317871052897442 0
5.52734375 0.03954187789412558 0
5.53125 -0.005642701180527225 0
5.53515625 -0.007710796663839198 0
5.5390625 0.022179062917443215 0
5.54296875 0.017265281004249632 0
5.546875 0.03347514543701852 0
5.55078125 0.05413315023367884 0
5.5546875 0.010946115383787852 0
5.55859375 0.01663346458873548 0
5.5625 0.04735487271781744 0
5.56640625 0.021337197856231192 0
5.5703125 0.017339205777654455 0
5.57421875 0.045203367790455244 0
5.578125 0.024619349195577116 0
5.58203125 0.06261813857228561 0
5.5859375 0.02375509308937049 0
5.58984375 0.05620582465607331 0
5.59375 0.06365964759834754 0
5.59765625 0.025540854355230683 0
5.6015625 0.004713054988678501 0
5.60546875 0.026624847117238257 0
5.609375 0.018054855186191293 0
5.61328125 0.022836451071594526 0
5.6171875 0.026127013716427314 0
5.62109375 0.04534772889360943 0
5.625 0.05813888237314206 0
5.62890625 0.00764689636511489 0
5.6328125 0.07521022671177657 0
5.63671875 0.021296200152153267 0
5.640625 0.016928132631487885 0
5.64453125 0.021287409986587704 0
5.6484375 0.04229360206443156 0
5.65234375 0.0441834520190436 0
5.65625 0.0583925941677548 0
5.66015625 0.06900169465860524 0
5.6640625 0.013490043424160485 0
5.66796875 0.01572752582557564 0
5.671875 0.034550575671890446 0
5.67578125 0.07521366863944048 0
5.6796875 0.07431055233824131 0
5.68359375 0.07859588965982589 0
5.6875 0.05629304499782815 0
5.69140625 0.025830662447070534 0
5.6953125 0.04422780067537771 0
5.69921875 0.04229866727405136 0
5.703125 0.06680011927424585 0
5.70703125 0.07933099262392398 0
5.7109375 0.04968019597258866 0
5.71484375 0.09603510191464107 0
5.71875 0.07791388615553131 0
5.72265625 0.10003204656718173 0
5.7265625 0.032098546577642745 0
5.73046875 0.06249944542231185 0
5.734375 0.10150389952570381 0
5.73828125 0.1051670518325509 0
5.7421875 0.04927684664935273 0
5.74609375 0.08270952295120579 0
5.75 0.06428253479908744 0
5.75390625 0.08427846454248625 0
5.7578125 0.14552339964814165 0
5.76171875 0.15704864484717984 0
5.765625 0.16906531438369882 0
5.76953125 0.12467601798396422 0
5.7734375 0.17823166797318846 0
5.77734375 0.17218937214163227 0
5.78125 0.23518106247964823 0
5.78515625 0.2386907532941881 0
5.7890625 0.26344718633033987 0
5.79296875 0.28899424527144013 0
5.796875 0.25308854133262715 0
5.80078125 0.24943255985080995 0
5.8046875 0.266135909313528 0
5.80859375 0.2988103063089257 0
5.8125 0.29958141279103495 0
5.81640625 0.33914384386797014 0
5.8203125 0.37317886038694165 0
5.82421875 0.3768822304275742 1
5.828125 0.3437403876717371 0
5.83203125 0.3375728509368905 0
5.8359375 0.3506805714092861 0
5.83984375 0.30817707062361543 0
5.84375 0.3400443911205353 0
5.84765625 0.3293574015170003 0
5.8515625 0.29836669559021456 0
5.85546875 0.2932221019045725 0
5.859375 0.26277384223537587 0
5.86328125 0.20876750400457997 0
5.8671875 0.18219490464181626 0
5.87109375 0.18384646583324263 0
5.875 0.19552958922844105 0
5.87890625 0.17979272626347648 0
5.8828125 0.16868486525210635 0
5.88671875 0.1475444733748412 0
5.890625 0.11124868744273954 0
5.89453125 0.12594254450473477 0
5.8984375 0.10259053543371452 0
5.90234375 0.08096153347568665 0
5.90625 0.09621470789605575 0
5.91015625 0.10328777807726458 0
5.9140625 0.05567586307778981 0
5.91796875 0.017417216031015606 0
5.921875 0.05632646775045738 0
5.92578125 0.01617462603273967 0
5.9296875 -0.05170956277030197 0
5.93359375 -0.05219295295390614 0
5.9375 -0.06718180404649028 0
5.94140625 -0.13561581474177675 0
5.9453125 -0.12379040022597113 2
5.94921875 -0.10171068213250228 0
5.953125 -0.0669486542861666 0
5.95703125 -0.032870452157428745 0
5.9609375 0.07162357202411451 0
5.96484375 0.23375722711810593 0
5.96875 0.3751627937164238 0
5.97265625 0.5057934278331975 0
5.9765625 0.6977684062227838 0
5.98046875 0.9247573023316067 0
5.984375 1.08421234071255 0
5.98828125 1.113942866569201 0
5.9921875 1.1652176144748903 3
5.99609375 1.110130895945668 0
6.0 1.0085674785452516 0
6.00390625 0.8227362918071172 0
6.0078125 0.5948474851993637 0
6.01171875 0.4439787425794843 0
6.015625 0.2449471355098581 0
6.01953125 0.08054889989705671 0
6.0234375 -0.08591174074746545 0
6.02734375 -0.17252673430129195 0
6.03125 -0.2897853584519188 0
6.03515625 -0.30439254983253483 0
6.0390625 -0.3285752624300886 4
6.04296875 -0.2561476315474963 0
6.046875 -0.2461109738202267 0
6.05078125 -0.18947534662937637 0
6.0546875 -0.18426678005648184 0
6.05859375 -0.09174621275993558 0
6.0625 -0.06662493024898591 0
6.06640625 -0.03404264264678242 0
6.0703125 -0.015055271032215486 0
6.07421875 -0.002337925302624829 0
6.078125 0.0006854499837966894 0
6.08203125 0.026393074318974852 0
6.0859375 0.02160056490468834 0
6.08984375 0.011236842746696115 0
6.09375 -0.01657675588574796 0
6.09765625 0.007151158556445955 0
6.1015625 0.015383789396621089 0
6.10546875 0.046814171318170936 0
6.109375 0.06803944365251707 0
6.11328125 0.037500728647460374 0
6.1171875 0.08657364407725987 0
6.12109375 0.06399037471513061 0
6.125 0.09487937004119176 0
6.12890625 0.04799732724021004 0
6.1328125 0.05402841355870807 0
6.13671875 0.10639745675635118 0
6.140625 0.11775109335353445 0
6.14453125 0.13069713006090472 0
6.1484375 0.12842664823417496 0
6.15234375 0.12662149741566706 0
6.15625 0.1953226995372337 0
6.16015625 0.15920599940177316 0
6.1640625 0.15306392677341046 0
6.16796875 0.19705916346241145 0
6.171875 0.1947628883411791 0
6.17578125 0.27044170268603734 0
6.1796875 0.29482681733420674 0
6.18359375 0.30800931235236245 0
6.1875 0.25236481359675855 0
6.19140625 0.29652948075766516 0
6.1953125 0.30924068412624284 0
6.19921875 0.3552398557129289 0
6.203125 0.3468796023550096 0
6.20703125 0.3934284349397634 0
6.2109375 0.4002016422907521 0
6.21484375 0.41468422013090045 0
6.21875 0.4183639580441977 0
6.22265625 0.3919222138413266 0
6.2265625 0.4454903880562695 0
6.23046875 0.42564228868382425 0
6.234375 0.4399792326276868 0
6.23828125 0.44385839408685485 0
6.2421875 0.4045922141707402 0
6.24609375 0.46822902547166956 5
6.25 0.4383530655824503 0
6.25390625 0.4081680491689148 0
6.2578125 0.441353995153837 0
6.26171875 0.43096337045355043 0
6.265625 0.41914982665190886 0
6.26953125 0.41411993846859996 0
6.2734375 0.36545407815329267 0
6.27734375 0.3742147630034703 0
6.28125 0.3721402750238311 0
6.28515625 0.3865691268395643 0
6.2890625 0.3386832601548498 0
6.29296875 0.3494359530137489 0
6.296875 0.3104503039273334 0
6.30078125 0.3138150162751587 0
6.3046875 0.25174979479245535 0
6.30859375 0.2676140784527565 0
6.3125 0.27007200925483116 0
6.31640625 0.18044303130779354 0
6.3203125 0.20668396384160487 0
6.32421875 0.19820072124175026 0
6.328125 0.18672738630383848 0
6.33203125 0.1257664256366951 0
6.3359375 0.09919630175826166 0
6.33984375 0.08286250445613186 0
6.34375 0.13057253122906656 0
6.34765625 0.08029904948961812 0
6.3515625 0.1008704135299769 0
6.35546875 0.07319560222601945 0
6.359375 0.05073115247801933 0
6.36328125 0.07746482979096997 0
6.3671875 0.0576198457936859 0
6.37109375 0.01678964833591277 0
6.375 0.003164103721076614 0
6.37890625 0.02438877328820819 0
6.3828125 -0.017772001935993032 0
6.38671875 0.012533832413717638 0
6.390625 -0.007216800667611614 0
6.39453125 -0.0042483774577708015 0
6.3984375 -0.022834125108602714 0
6.40234375 -0.0672104166894498 0
6.40625 -0.016179024488694512 0
6.41015625 -0.07563426166093896 0
6.4140625 -0.06210660168744937 0
6.41796875 -0.07591670104600844 0
6.421875 -0.07170055020637217 0
6.42578125 -0.06396804308341518 0
6.4296875 -0.08958236009855061 0
6.43359375 -0.0390919163197047 0
6.4375 -0.032541594587288496 0
6.44140625 -0.0784164206618017 0
6.4453125 -0.09454669852592057 0
6.44921875 -0.08295751140614563 0
6.453125 -0.06294658302533156 0
6.45703125 -0.043676372188020236 0
6.4609375 -0.02320264434133326 0
6.46484375 -0.05035671540833984 0
6.46875 -0.031390987698023655 0
6.47265625 -0.022039431156186368 0
6.4765625 -0.09557715775336019 0
6.48046875 -0.06663204097672606 0
6.484375 -0.073182544824697 0
6.48828125 -0.022859151901560466 0
6.4921875 -0.041815638272650446 0
6.49609375 -0.08347223179862101 0
6.5 -0.025847703094241125 0
6.50390625 -0.0573021762412659 0
6.5078125 -0.024688526393957327 0
6.51171875 -0.02494637805138395 0
6.515625 -0.0916338223372633 0
6.51953125 -0.039811446489181536 0
6.5234375 -0.047158788055241145 0
6.52734375 -0.0555973042585825 0
6.53125 -0.07205750794508155 0
6.53515625 -0.033900202081306216 0
6.5390625 -0.014147847220740126 0
6.54296875 -0.09164152791539326 0
6.546875 -0.017480969914702327 0
6.55078125 -0.08715473559057381 0
6.5546875 -0.061890503049051186 0
6.55859375 -0.060821644017735606 0
6.5625 -0.04515931677811899 0
6.56640625 -0.033121835647389825 0
6.5703125 -0.022075129186672333 0
6.57421875 -0.02965505528066755 0
6.578125 -0.03098646061055063 0
6.58203125 -0.03933791443073913 0
6.5859375 -0.02810139604207876 0
6.58984375 -0.019286503107306584 0
6.59375 -0.02425031560387139 0
6.59765625 -0.02027921133507398 0
6.6015625 -0.07449969298486266 0
6.60546875 -0.05640487061700295 0
6.609375 -0.03979711355937419 0
6.61328125 -0.08718401140286014 0
6.6171875 -0.06090817479628019 0
6.62109375 -0.020164180681516913 0
6.625 -0.05532933475864108 0
6.62890625 -0.053662790422425985 0
6.6328125 -0.08009241901642396 0
6.63671875 -0.04795097979764104 0
6.640625 -0.012278144929960724 0
6.64453125 -0.010689368877744819 0
6.6484375 -0.0756128034817023 0
6.65234375 -0.013603623030513844 0
6.65625 -0.049135518157036345 0
6.66015625 -0.04189488090218021 0
6.6640625 -0.06637767758702029 0
6.66796875 -0.012233427230542077 0
6.671875 -0.03179962618957623 0
6.67578125 -0.013747739040768404 0
6.6796875 -0.007360399625179995 0
6.68359375 -0.061669595508265465 0
6.6875 -0.052949921336097994 0
6.69140625 -0.07938208815151218 0
6.6953125 -0.01845880816573645 0
6.69921875 -0.014880036783535382 0
6.703125 -0.052185366279510356 0
6.70703125 -0.017011165188031963 0
6.7109375 -0.07162935352688007 0
6.71484375 -0.025962125220312028 0
6.71875 -0.007762478515050103 0
6.72265625 -0.04833300891314132 0
6.7265625 -0.04776998233098809 0
6.73046875 -0.0495578319786375 0
6.734375 -0.024345179161464732 0
6.73828125 -0.05821912746574533 0
6.7421875 -0.06999352001931096 0
6.74609375 -0.07184778087386363 0
6.75 -0.012701016139589984 0
6.75390625 -0.006482912674132538 0
6.7578125 0.005901894961280615 0
6.76171875 0.0024053496827145075 0
6.765625 -0.025157669417236003 0
6.76953125 -0.016903409906226595 0
6.7734375 0.002867335574364571 0
6.77734375 0.027525085363639318 0
6.78125 -0.0014333428282733846 0
6.78515625 0.013329164765918139 0
6.7890625 0.049515805619947104 0
6.79296875 0.06410570823354562 0
6.796875 0.1200088060457308 0
6.80078125 0.11722402757088321 0
6.8046875 0.09950529424766724 0
6.80859375 0.15766170392135403 0
6.8125 0.16716468507913917 0
6.81640625 0.19869136816245841 0
6.8203125 0.1908829209034404 0
6.82421875 0.23784687861870518 0
6.828125 0.2154183697321846 0
6.83203125 0.19810218987983721 0
6.8359375 0.2348381552713051 0
6.83984375 0.23429742815346033 0
6.84375 0.24035093203433727 0
6.84765625 0.26157211215928133 1
6.8515625 0.24109878993200817 0
6.85546875 0.2661624038223479 0
6.859375 0.2538588827774343 0
6.86328125 0.25892838812189606 0
6.8671875 0.2236118727286721 0
6.87109375 0.15771167887450194 0
6.875 0.19736455348594822 0
6.87890625 0.1498729665333885 0
6.8828125 0.10780976438140816 0
6.88671875 0.09379542783130018 0
6.890625 0.1228204885186983 0
6.89453125 0.07016274595369884 0
6.8984375 0.09922443691595126 0
6.90234375 0.06360028749556476 0
6.90625 0.017808814741289574 0
6.91015625 0.062375889356979124 0
6.9140625 0.003946764959981475 0
6.91796875 -0.01119836936208856 0
6.921875 -0.02603293507693872 0
6.92578125 0.010370361735828233 0
6.9296875 -0.048528163063871164 0
6.93359375 -0.006365080968507894 0
6.9375 -0.037252140077391194 0
6.94140625 -0.05389121855494078 0
6.9453125 -0.10183199370811571 0
6.94921875 -0.06338293137464969 0
6.953125 -0.10731588931344657 0
6.95703125 -0.1653876328536675 0
6.9609375 -0.1521897773984499 0
6.96484375 -0.2040243121121955 0
6.96875 -0.24854700688996914 0
6.97265625 -0.2015005269937504 2
6.9765625 -0.21712695297523518 0
6.98046875 -0.1970833548657165 0
6.984375 -0.14504988531430116 0
6.98828125 -0.028903715624467155 0
6.9921875 0.1009479684473025 0
6.99609375 0.2625726198872558 0
7.0 0.463241631536866 0
7.00390625 0.6419022893329851 0
7.0078125 0.8324811900218168 0
7.01171875 0.980466371193159 0
7.015625 1.0961330435123835 0
7.01953125 1.0685087688561696 3
7.0234375 1.0422006236866854 0
7.02734375 0.9506903975756705 0
7.03125 0.834166679246108 0
7.03515625 0.5743636615021087 0
7.0390625 0.40694131853845844 0
7.04296875 0.196951475790471 0
7.046875 0.003323525930942619 0
7.05078125 -0.10071072945582196 0
7.0546875 -0.23244433159068198 0
7.05859375 -0.31280841587936103 0
7.0625 -0.3327805775465531 0
7.06640625 -0.32470446477107845 4
7.0703125 -0.2821879138009574 0
7.07421875 -0.2519596069904886 0
7.078125 -0.269591528526558 0
7.08203125 -0.19541862611454214 0
7.0859375 -0.1906392287523998 0
7.08984375 -0.1660675252103138 0
7.09375 -0.08287234364037846 0
7.09765625 -0.11118086708140859 0
7.1015625 -0.06903876321259242 0
7.10546875 -0.09274058511426916 0
7.109375 -0.05882482735898896 0
7.11328125 -0.0545758985258148 0
7.1171875 -0.016664947619304624 0
7.12109375 0.000943195292655373 0
7.125 -0.01874328026423487 0
7.12890625 -0.010804273584997113 0
7.1328125 -0.029842313291499202 0
7.13671875 0.0015960064052303255 0
7.140625 -0.03169377146369888 0
7.14453125 -0.027130257481595862 0
7.1484375 -0.022134228534544702 0
7.15234375 0.0033642101367536686 0
7.15625 0.049481273523119866 0
7.16015625 0.0037644109645863268 0
7.1640625 0.045002149876806924 0
7.16796875 0.03771573287467867 0
7.171875 0.09620704971710697 0
7.17578125 0.11588911650518954 0
7.1796875 0.1133201662763528 0
7.18359375 0.0743614355790384 0
7.1875 0.1105471848023181 0
7.19140625 0.16095460246932278 0
7.1953125 0.1623827355272178 0
7.19921875 0.1591750603077422 0
7.203125 0.20178830472820997 0
7.20703125 0.24489461375211924 0
7.2109375 0.22607316227459956 0
7.21484375 0.2582637006962133 0
7.21875 0.28147262600313255 0
7.22265625 0.30986272932249304 0
7.2265625 0.2485207923561325 0
7.23046875 0.3058318542758166 0
7.234375 0.27682276860356236 0
7.23828125 0.3089608722782249 0
7.2421875 0.328697924308832 0
7.24609375 0.37913997373005853 0
7.25 0.33146112559828084 0
7.25390625 0.3780064641233267 0
7.2578125 0.37910731747922033 0
7.26171875 0.39525275780052105 0
7.265625 0.40570278279446575 0
7.26953125 0.37042518096204097 5
7.2734375 0.3514302868899588 0
7.27734375 0.3701314258548505 0
7.28125 0.3958020167679775 0
7.28515625 0.37843987249629096 0
7.2890625 0.3377252852680401 0
7.29296875 0.35964763683673917 0
7.296875 0.3057806076075407 0
7.30078125 0.31493427096184873 0
7.3046875 0.2698783868913274 0
7.30859375 0.3253411781414508 0
7.3125 0.2511479619994576 0
7.31640625 0.29367531874054836 0
7.3203125 0.21001325706970728 0
7.32421875 0.23625869038978808 0
7.328125 0.17478230351936153 0
7.33203125 0.17645724384301997 0
7.3359375 0.20136474459345463 0
7.33984375 0.16673277245357132 0
7.34375 0.10993568687064023 0
7.34765625 0.11871333255083011 0
7.3515625 0.09878529341468956 0
7.35546875 0.08739328833063764 0
7.359375 0.09595734051868346 0
7.36328125 0.08264739113888345 0
7.3671875 0.020415774026355804 0
7.37109375 0.031219715610532828 0
7.375 0.03526304230129096 0
7.37890625 0.030613404537655053 0
7.3828125 -0.04826225451046897 0
7.38671875 -0.042140913697714895 0
7.390625 -0.023492008680268316 0
7.39453125 -0.07394348305266965 0
7.3984375 -0.04479294442669447 0
7.40234375 -0.055364960478218324 0
7.40625 -0.09340404430939765 0
7.41015625 -0.10712262381172113 0
7.4140625 -0.03750306220878271 0
7.41796875 -0.06373524405980245 0
7.421875 -0.06418094384961598 0
7.42578125 -0.06397789505507132 0
7.4296875 -0.05370613828970024 0
7.43359375 -0.11423264936146618 0
7.4375 -0.0814698929242665 0
7.44140625 -0.11245289165193591 0
7.4453125 -0.10837219711986543 0
7.44921875 -0.07463767606866745 0
7.453125 -0.07858939363259027 0
7.45703125 -0.11578626286903765 0
7.4609375 -0.12287631579067099 0
7.46484375 -0.10479819522821433 0
7.46875 -0.07558581232001552 0
7.47265625 -0.13592789352648413 0
7.4765625 -0.13135712803198224 0
7.48046875 -0.1214240761321342 0
7.484375 -0.06972678770664964 0
7.48828125 -0.1098305127957042 0
7.4921875 -0.0781422600375255 0
7.49609375 -0.07260161901649659 0
7.5 -0.1401982717263769 0
7.50390625 -0.14597186931615702 0
7.5078125 -0.10442662657019366 0
7.51171875 -0.13654804677912863 0
7.515625 -0.07397988289244874 0
7.51953125 -0.12979746648859633 0
7.5234375 -0.0898943644216519 0
7.52734375 -0.13587259047180325 0
7.53125 -0.14375949677589464 0
7.53515625 -0.12494123192677448 0
7.5390625 -0.0788705788935116 0
7.54296875 -0.12122375558913946 0
7.546875 -0.0812233656543728 0
7.55078125 -0.12235546228653768 0
7.5546875 -0.13692745821545435 0
7.55859375 -0.09036660083362477 0
7.5625 -0.11598548745808394 0
7.56640625 -0.09221771359280063 0
7.5703125 -0.0733081929127114 0
7.57421875 -0.0843648860819376 0
7.578125 -0.10833272723468063 0
7.58203125 -0.11918088815539357 0
7.5859375 -0.1365469331014558 0
7.58984375 -0.13015376045727114 0
7.59375 -0.07485368007294778 0
7.59765625 -0.06110515207031096 0
7.6015625 -0.07757870842115154 0
7.60546875 -0.09908222797088762 0
7.609375 -0.0817676421658687 0
7.61328125 -0.09439845339142076 0
7.6171875 -0.0845235849293948 0
7.62109375 -0.06289768979398583 0
7.625 -0.11463951337312492 0
7.62890625 -0.08270715187146879 0
7.6328125 -0.08117567349755622 0
7.63671875 -0.05905413433944925 0
7.640625 -0.07185376867103883 0
7.64453125 -0.12963480688603696 0
7.6484375 -0.08839706358969865 0
7.65234375 -0.09041756834814853 0
7.65625 -0.10597547270056656 0
7.66015625 -0.09667619765318729 0
7.6640625 -0.0954403301156981 0
7.66796875 -0.08040058326444652 0
7.671875 -0.06827490969697747 0
7.67578125 -0.11561982321210273 0
7.6796875 -0.07370260693302319 0
7.68359375 -0.0712552771372515 0
7.6875 -0.05880349418574645 0
7.69140625 -0.05349950548426769 0
7.6953125 -0.06148380599667336 0
7.69921875 -0.0814599744343575 0
7.703125 -0.09960259325590345 0
7.70703125 -0.11250434386412383 0
7.7109375 -0.08572417498826874 0
7.71484375 -0.05374823714598978 0
7.71875 -0.08732274902311318 0
7.72265625 -0.10532986896839182 0
7.7265625 -0.05403549936277636 0
7.73046875 -0.053414708030689845 0
7.734375 -0.10767979676068486 0
7.73828125 -0.08471107194521765 0
7.7421875 -0.07461834387417866 0
7.74609375 -0.050982521169210766 0
7.75 -0.05097900857912803 0
7.75390625 -0.04607457498658088 0
7.7578125 -0.06931844850702389 0
7.76171875 -0.06160745544734479 0
7.765625 -0.08295879131232475 0
7.76953125 -0.03363581925459849 0
7.7734375 -0.01624963809479517 0
7.77734375 -0.03906437694248445 0
7.78125 -0.05166991803533346 0
7.78515625 -0.019304661768239226 0
7.7890625 0.006307787008718913 0
7.79296875 0.0074136396135404525 0
7.796875 0.016213295361184273 0
7.80078125 0.03640295559596865 0
7.8046875 0.06144815363313175 0
7.80859375 0.08373154186417844 0
7.8125 0.05055313475408648 0
7.81640625 0.07944374967767874 0
7.8203125 0.06274021566983749 0
7.82421875 0.10259987306708629 0
7.828125 0.11570831639869036 0
7.83203125 0.1854169019262969 0
7.8359375 0.15030017504349025 0
7.83984375 0.14436044292125128 0
7.84375 0.18626488958174903 0
7.84765625 0.1976682197698916 0
7.8515625 0.23663367030189014 0
7.85546875 0.24645389409540575 0
7.859375 0.21041603467395154 1
7.86328125 0.24220643421170646 0
7.8671875 0.23197132067628923 0
7.87109375 0.23785413985290813 0
7.875 0.2307099529853322 0
7.87890625 0.19640027352662368 0
7.8828125 0.2144651469473462 0
7.88671875 0.12075968285817197 0
7.890625 0.18168504560843085 0
7.89453125 0.16010962724073088 0
7.8984375 0.14799148863996392 0
7.90234375 0.0874583863719635 0
7.90625 0.09999188787190376 0
7.91015625 0.07901014389587852 0
7.9140625 0.010752836693824985 0
7.91796875 0.0572800570262975 0
7.921875 0.023479710866617754 0
7.92578125 0.03848985795368199 0
7.9296875 -0.018951056072936383 0
7.93359375 -0.013809494462879008 0
7.9375 -0.0005773765443837856 0
7.94140625 -0.050605942778185684 0
7.9453125 -0.09026612696425211 0
7.94921875 -0.04511243187951286 0
7.953125 -0.10148267291562005 0
7.95703125 -0.06704822403609652 0
7.9609375 -0.08459902873377173 0
7.96484375 -0.1164323698245734 0
7.96875 -0.18206168290232852 0
7.97265625 -0.22010419989397084 0
7.9765625 -0.23319798493742894 0
7.98046875 -0.2532239945778988 0
7.984375 -0.22548011305638688 2
7.98828125 -0.24701938765917036 0
7.9921875 -0.14104262975593845 0
7.99609375 -0.11548616498851272 0
8.0 0.04995052600521066 0
8.00390625 0.15548497532106742 0
8.0078125 0.327686842658274 0
8.01171875 0.5099985721658234 0
8.015625 0.6845187986234066 0
8.01953125 0.8986049474642546 0
8.0234375 1.0045289203913996 0
8.02734375 1.0874941521323402 3
8.03125 1.085619848512714 0
8.03515625 0.9846109093311408 0
8.0390625 0.872439244839587 0
8.04296875 0.6709053625689159 0
8.046875 0.4409515056689472 0
8.05078125 0.2157938240441494 0
8.0546875 0.10576800159559474 0
8.05859375 -0.09198845763195879 0
8.0625 -0.14264230023486738 0
8.06640625 -0.24991114146672472 0
8.0703125 -0.26420862772420856 0
8.07421875 -0.2872011073584102 4
8.078125 -0.26935717679603305 0
8.08203125 -0.19442990002621735 0
8.0859375 -0.19764883957328533 0
8.08984375 -0.10951824009968276 0
8.09375 -0.05673176373146416 0
8.09765625 -0.047421237505382303 0
8.1015625 -0.048430688282524295 0
8.10546875 -0.008563223997129887 0
8.109375 0.01315983417424577 0
8.11328125 0.0238027796592502 0
8.1171875 0.0353381883495738 0
8.12109375 0.018952054562209848 0
8.125 -0.0013439987642940385 0
8.12890625 0.018852169630617605 0
8.1328125 -0.022233390310296593 0
8.13671875 0.03294028410999397 0
8.140625 0.05218138695072433 0
8.14453125 0.07452564467630429 0
8.1484375 0.04839976542009868 0
8.15234375 0.07108657561188536 0
8.15625 0.05922214556283747 0
8.16015625 0.062044307096397175 0
8.1640625 0.07984646430865386 0
8.16796875 0.12309040561896926 0
8.171875 0.13519925951052641 0
8.17578125 0.15256145245774255 0
8.1796875 0.11173660746875512 0
8.18359375 0.13528594335462563 0
8.1875 0.18649299750877776 0
8.19140625 0.19984973510827067 0
8.1953125 0.21433795836826058 0
8.19921875 0.18768064022051198 0
8.203125 0.2333185426022402 0
8.20703125 0.24849991528254997 0
8.2109375 0.2594505152948838 0
8.21484375 0.296514230798353 0
8.21875 0.26786883449496623 0
8.22265625 0.33341658693401915 0
8.2265625 0.355622369964408 0
8.23046875 0.34220423269696276 0
8.234375 0.36201558696407465 0
8.23828125 0.3459613773457518 0
8.2421875 0.36626859039809573 0
8.24609375 0.4145150859171883 0
8.25 0.4301925901485892 0
8.25390625 0.36804490779751187 0
8.2578125 0.41659294184866025 0
8.26171875 0.4442012258320545 0
8.265625 0.3917470704500873 5
8.26953125 0.40006965928293986 0
8.2734375 0.4252455429912848 0
8.27734375 0.3982030576919105 0
8.28125 0.37507444300822834 0
8.28515625 0.4243160593204935 0
8.2890625 0.3666317570561076 0
8.29296875 0.34549134675879356 0
8.296875 0.36673702917493023 0
8.30078125 0.3502064853670952 0
8.3046875 0.36393873918758873 0
8.30859375 0.31633824905508434 0
8.3125 0.3421975441104215 0
8.31640625 0.3125456549745351 0
8.3203125 0.28054902633937884 0
8.32421875 0.26170385380610484 0
8.328125 0.25760060441500154 0
8.33203125 0.21980643087868276 0
8.3359375 0.23268585456952795 0
8.33984375 0.15081569899752378 0
8.34375 0.16617279576613547 0
8.34765625 0.15845239271445505 0
8.3515625 0.17073076947008153 0
8.35546875 0.09933259029189451 0
8.359375 0.0741286492044457 0
8.36328125 0.11927057741671007 0
8.3671875 0.09567633186571593 0
8.37109375 0.07943582964336882 0
8.375 0.034070803840329705 0
8.37890625 0.05217952787372311 0
8.3828125 -0.0020580813625165895 0
8.38671875 0.010809814263296573 0
8.390625 0.031873524996533405 0
8.39453125 0.026746208993208433 0
8.3984375 0.031101695550483782 0
8.40234375 0.04263724831527488 0
8.40625 0.02230477204241327 0
8.41015625 0.0073118316047876865 0
8.4140625 -0.0076881236992477845 0
8.41796875 -0.029583765958223214 0
8.421875 0.01608751936797189 0
8.42578125 -0.015088873525552446 0
8.4296875 -0.016047994337348572 0
8.43359375 0.005504612616773447 0
8.4375 -0.010037846175557315 0
8.44140625 0.015134960149624926 0
8.4453125 0.01456014234737929 0
8.44921875 0.015503530789144314 0
8.453125 -0.05264869656769941 0
8.45703125 -0.04017850307866237 0
8.4609375 -0.022335567749438866 0
8.46484375 -0.040605407924812216 0
8.46875 0.0035471281047713306 0
8.47265625 -0.05704768997294509 0
8.4765625 -0.05053223712436622 0
8.48046875 -0.0049403509816850245 0
8.484375 -0.010054284203668062 0
8.48828125 -0.022573229525140872 0
8.4921875 0.0018443308348282152 0
8.49609375 -0.011526220253165211 0
8.5 -0.015376126238301256 0
8.50390625 -0.030719431880489527 0
8.5078125 -0.049855472920731156 0
8.51171875 -0.018014664506275032 0
8.515625 0.0014624786565227005 0
8.51953125 -0.028095285263903504 0
8.5234375 -0.022136841078369267 0
8.52734375 -0.026583760042968876 0
8.53125 0.005009119866179759 0
8.53515625 -0.048805192620175984 0
8.5390625 -0.023515085314058246 0
8.54296875 -0.016896184237537002 0
8.546875 0.002316080441023263 0
8.55078125 -0.0361950624841878 0
8.5546875 -0.009464209807602155 0
8.55859375 0.029989004921666056 0
8.5625 0.0216570250255137 0
8.56640625 -0.0012091509771542828 0
8.5703125 -0.013357109974441804 0
8.57421875 -0.043208350681162376 0
8.578125 -0.032844124237681516 0
8.58203125 -0.01747724401363139 0
8.5859375 0.014682431538519662 0
8.58984375 -0.0038030293000314774 0
8.59375 -0.006016845773327133 0
8.59765625 0.039095377133072144 0
8.6015625 0.03203030611898755 0
8.60546875 0.035418016412752516 0
8.609375 0.006055493089445663 0
8.61328125 -0.028568245458918506 0
8.6171875 0.0018119784445885735 0
8.62109375 0.03730855687130913 0
8.625 0.0005729349621018962 0
8.62890625 -0.019459295760493038 0
8.6328125 0.0016039005084183561 0
8.63671875 -0.0318695303624146 0
8.640625 -0.026661120474722584 0
8.64453125 0.04892859531311721 0
8.6484375 0.03153509715445901 0
8.65234375 0.01904299757319595 0
8.65625 0.01684607989235118 0
8.66015625 0.020661245063614025 0
8.6640625 -0.01981914786293936 0
8.66796875 0.015017023142189383 0
8.671875 -0.021381981138842453 0
8.67578125 0.03601508793055712 0
8.6796875 -0.01810546900205004 0
8.68359375 0.034074241157176846 0
8.6875 0.05298879454787815 0
8.69140625 0.025365476274397322 0
8.6953125 0.023268169504932726 0
8.69921875 -0.0015703019714532647 0
8.703125 0.06012465929890354 0
8.70703125 0.04716158822117749 0
8.7109375 0.009249820800962944 0
8.71484375 0.027294813550934514 0
8.71875 0.04254399028589835 0
8.72265625 0.024061426696491785 0
8.7265625 0.06963964471155576 0
8.73046875 0.067739662868184 0
8.734375 0.04875586776061789 0
8.73828125 0.051965014434397855 0
8.7421875 0.0374351790497142 0
8.74609375 0.05408007245492447 0
8.75 0.02560421436749432 0
8.75390625 0.08005928234786236 0
8.7578125 0.0482808877601312 0
8.76171875 0.08249855406535912 0
8.765625 0.06907528763871618 0
8.76953125 0.09579826768302376 0
8.7734375 0.16840238905452926 0
8.77734375 0.16594685610081686 0
8.78125 0.1743941351029796 0
8.78515625 0.1611058915933232 0
8.7890625 0.22148125704501861 0
8.79296875 0.18393437401440824 0
8.796875 0.2632485190036652 0
8.80078125 0.26573200013359305 0
8.8046875 0.23402762194722854 0
8.80859375 0.2674942668935092 0
8.8125 0.31092288087174585 0
8.81640625 0.3177699197816712 0
8.8203125 0.3342080132970196 0
8.82421875 0.2957700434576679 0
8.828125 0.29032131573402853 1
8.83203125 0.3391298285342593 0
8.8359375 0.2920180496361243 0
8.83984375 0.26729131295574066 0
8.84375 0.2874864318298295 0
8.84765625 0.2807092773995552 0
8.8515625 0.22963233290122764 0
8.85546875 0.27964350934551746 0
8.859375 0.23472540575468084 0
8.86328125 0.20422880313661193 0
8.8671875 0.19993425715054794 0
8.87109375 0.1776986819407982 0
8.875 0.15063813371247392 0
8.87890625 0.15129348819583763 0
8.8828125 0.10967818296752793 0
8.88671875 0.134959158290899 0
8.890625 0.06800732678530001 0
8.89453125 0.08221974437834233 0
8.8984375 0.07619156320328252 0
8.90234375 0.058542954328281174 0
8.90625 0.05217786018545785 0
8.91015625 0.04429437830297633 0
8.9140625 0.006366391771423972 0
8.91796875 0.003759717987753798 0
8.921875 -0.027102549763855004 0
8.92578125 0.017171574521270196 0
8.9296875 -0.021509586666613408 0
8.93359375 -0.07228342309533348 0
8.9375 -0.1308171866262996 0
8.94140625 -0.09019975518064198 0
8.9453125 -0.09888288169630706 2
8.94921875 -0.07413879905378207 0
8.953125 -0.07960999053724646 0
8.95703125 -0.0057563226113396745 0
8.9609375 0.11852025848931079 0
8.96484375 0.3066597387728637 0
8.96875 0.44044167392070566 0
8.97265625 0.6719070357532549 0
8.9765625 0.8518062548409568 0
8.98046875 0.9954637288512675 0
8.984375 1.096289925699277 0
8.98828125 1.1180667894329541 3
8.9921875 1.0524313753440309 0
8.99609375 1.0043897783005393 0
9.0 0.8112787608692582 0
9.00390625 0.6426652719747489 0
9.0078125 0.38809317033508073 0
9.01171875 0.19417734298889194 0
9.015625 0.06994333126696686 0
9.01953125 -0.05219390740089415 0
9.0234375 -0.16264216655007646 0
9.02734375 -0.22091271170907742 0
9.03125 -0.27488659476801247 4
9.03515625 -0.21938702223292153 0
9.0390625 -0.23927884963561524 0
9.04296875 -0.16636101691364039 0
9.046875 -0.13946934940970004 0
9.05078125 -0.11100122398264022 0
9.0546875 -0.0330524384040504 0
9.05859375 -0.00769965603234954 0
9.0625 0.045589536065807845 0
9.06640625 0.009918624415083227 0
9.0703125 0.06333343308539212 0
9.07421875 0.008433913160344867 0
9.078125 0.04013334414260306 0
9.08203125 0.020232193406055362 0
9.0859375 0.034993041201500985 0
9.08984375 0.02934696851672748 0
9.09375 0.08552283744972217 0
9.09765625 0.0984620049085751 0
9.1015625 0.0629686610026797 0
9.10546875 0.11537481252010255 0
9.109375 0.09733186191097734 0
9.11328125 0.0743565243994246 0
9.1171875 0.09741549368870625 0
9.12109375 0.15230098968610203 0
9.125 0.12550197099365915 0
9.12890625 0.15228689516460542 0
9.1328125 0.1902346049847374 0
9.13671875 0.21385215921203568 0
9.140625 0.1736280529973132 0
9.14453125 0.22185645803237639 0
9.1484375 0.22840631168614647 0
9.15234375 0.20024547263119075 0
9.15625 0.2386506840318715 0
9.16015625 0.2835240363312374 0
9.1640625 0.2770064439164879 0
9.16796875 0.29137966695404055 0
9.171875 0.2982508736653326 0
9.17578125 0.3498993652640948 0
9.1796875 0.34892018094518773 0
9.18359375 0.37685278346438916 0
9.1875 0.4178887043241956 0
9.19140625 0.3633024517368821 0
9.1953125 0.4247387976271559 0
9.19921875 0.45366591262498784 0
9.203125 0.4586681363767607 0
9.20703125 0.43361973648715446 0
9.2109375 0.46217526039541046 0
9.21484375 0.43701979269787794 0
9.21875 0.44262052684241326 0
9.22265625 0.5033047675499324 0
9.2265625 0.4458131932969347 0
9.23046875 0.47935981118456 5
9.234375 0.48629054300304697 0
9.23828125 0.5011571861650977 0
9.2421875 0.44172852708460364 0
9.24609375 0.48631761017514413 0
9.25 0.48210924108541786 0
9.25390625 0.42910956265191874 0
9.2578125 0.4431451701462826 0
9.26171875 0.4265879059493783 0
9.265625 0.4172162119396681 0
9.26953125 0.35506809187273636 0
9.2734375 0.3778404199545667 0
9.27734375 0.36167893425246045 0
9.28125 0.3014949692394699 0
9.28515625 0.28803655353668056 0
9.2890625 0.28396282589003335 0
9.29296875 0.3039507897134636 0
9.296875 0.2714459962823752 0
9.30078125 0.2463458228214328 0
9.3046875 0.26261683463798824 0
9.30859375 0.22786298235751645 0
9.3125 0.167814892465721 0
9.31640625 0.16212048098588513 0
9.3203125 0.134908754535686 0
9.32421875 0.13623962824448077 0
9.328125 0.10285953180717858 0
9.33203125 0.15913788793591133 0
9.3359375 0.1344490682372606 0
9.33984375 0.07666743067940504 0
9.34375 0.0670190717390706 0
9.34765625 0.06418814729161265 0
9.3515625 0.04834062790459939 0
9.35546875 0.09110568809780725 0
9.359375 0.04015882392264868 0
9.36328125 0.05541862519345243 0
9.3671875 0.029480623124191224 0
9.37109375 0.07070870934935664 0
9.375 0.029995130153705758 0
9.37890625 0.05568336090662345 0
9.3828125 0.03407725285712451 0
9.38671875 -0.002779811046645486 0
9.390625 0.030160889871951 0
9.39453125 0.01779479830484754 0
9.3984375 0.017642730894780592 0
9.40234375 0.03887377214894694 0
9.40625 0.011306692421707764 0
9.41015625 0.032244993564639245 0
9.4140625 0.04768864495836832 0
9.41796875 0.06428006087359481 0
9.421875 0.026165670398284963 0
9.42578125 0.01553342318618547 0
9.4296875 0.006070280098831985 0
9.43359375 0.05554654834972751 0
9.4375 0.0138757641851348 0
9.44140625 0.006802250195264297 0
9.4453125 0.03082301348733902 0
9.44921875 0.06371033382106664 0
9.453125 0.05798115954140688 0
9.45703125 0.014279069567829102 0
9.4609375 -0.011941808256495483 0
9.46484375 0.006289205002786218 0
9.46875 0.02562059773933663 0
9.47265625 0.030393619815472252 0
9.4765625 -0.007913556984923818 0
9.48046875 0.06480478684691818 0
9.484375 0.06258259065491886 0
9.48828125 0.022258500846080647 0
9.4921875 0.023659947627135317 0
9.49609375 -0.0024071689429537788 0
9.5 -0.002822505913296601 0
9.50390625 0.00015343788350807158 0
9.5078125 0.02625004718851552 0
9.51171875 0.05089742570922765 0
9.515625 -0.0033686273362525596 0
9.51953125 0.04960114038407701 0
9.5234375 0.005241184609285139 0
9.52734375 0.015385766418813791 0
9.53125 0.03427574477679928 0
9.53515625 0.00925448042882937 0
9.5390625 0.028036956031759583 0
9.54296875 0.043168382064101236 0
9.546875 0.009286128481197514 0
9.55078125 0.05552143531306204 0
9.5546875 0.016070942623817322 0
9.55859375 0.05499277692213395 0
9.5625 0.0072245003133175195 0
9.56640625 0.04551313818754645 0
9.5703125 0.02934221766732271 0
9.57421875 0.05872788755766797 0
9.578125 0.03484169033292767 0
9.58203125 0.027734421630723687 0
9.5859375 0.00998134882604091 0
9.58984375 0.032382934761393777 0
9.59375 0.012834112865311026 0
9.59765625 0.020341293979217707 0
9.6015625 0.03087597782692766 0
9.60546875 0.01858909046375207 0
9.609375 0.01934970455075961 0
9.61328125 0.06853754896677747 0
9.6171875 0.06179487291583298 0
9.62109375 0.01961519963044576 0
9.625 0.017962473737810014 0
9.62890625 0.08510101921156338 0
9.6328125 0.031076200840711034 0
9.63671875 0.05238202368942937 0
9.640625 0.08477414157806314 0
9.64453125 0.030358375916811117 0
9.6484375 0.06735027237944205 0
9.65234375 0.021117769716631637 0
9.65625 0.020340316429205633 0
9.66015625 0.09373022266227607 0
9.6640625 0.06110582895434526 0
9.66796875 0.04394972102702741 0
9.671875 0.029011245271750988 0
9.67578125 0.03767577884827226 0
9.6796875 0.0478251167256529 0
9.68359375 0.03212007663482728 0
9.6875 0.08309873398947304 0
9.69140625 0.09446455148124687 0
9.6953125 0.044142152539679666 0
9.69921875 0.034319886799349386 0
9.703125 0.09659650085979463 0
9.70703125 0.09152130859447671 0
9.7109375 0.09362337130868444 0
9.71484375 0.1234357696912812 0
9.71875 0.09492020367036359 0
9.72265625 0.07871776800557093 0
9.7265625 0.09130468702446733 0
9.73046875 0.16058161266634546 0
9.734375 0.1523224545832811 0
9.73828125 0.16220885383579484 0
9.7421875 0.1841735878390564 0
9.74609375 0.14390262839296838 0
9.75 0.18139903161775586 0
9.75390625 0.19631752804188873 0
9.7578125 0.25887974968374855 0
9.76171875 0.2773674045515317 0
9.765625 0.2646884513379952 0
9.76953125 0.282018679033509 0
9.7734375 0.2983378517235971 0
9.77734375 0.3121528047303144 0
9.78125 0.3241084351077685 0
9.78515625 0.3515256455986633 0
9.7890625 0.30278414443801066 0
9.79296875 0.31101303223297605 0
9.796875 0.3197069320747139 1
9.80078125 0.3455159999174798 0
9.8046875 0.32201165183170366 0
9.80859375 0.3318848288986959 0
9.8125 0.2895349275357136 0
9.81640625 0.3137721121791402 0
9.8203125 0.25563542253787414 0
9.82421875 0.29755418301922604 0
9.828125 0.23741445437821115 0
9.83203125 0.2677042737821923 0
9.8359375 0.21772026045171755 0
9.83984375 0.17122920518459497 0
9.84375 0.2104687445831238 0
9.84765625 0.16458498020796908 0
9.8515625 0.17770110419094398 0
9.85546875 0.12563268888216247 0
9.859375 0.12638042439680983 0
9.86328125 0.10558042054950151 0
9.8671875 0.12675918516634666 0
9.87109375 0.0896777842963005 0
9.875 0.09952226098282504 0
9.87890625 0.10256725895732971 0
9.8828125 0.08577250358026095 0
9.88671875 0.010204488319076915 0
9.890625 0.019830745371973612 0
9.89453125 0.0341971495905706 0
9.8984375 -0.028451167650858467 0
9.90234375 -0.048298233262158846 0
9.90625 -0.08590027964610741 0
9.91015625 -0.07533108742398596 0
9.9140625 -0.10606226781183581 2
9.91796875 -0.07641871349438281 0
9.921875 -0.06755171009471861 0
9.92578125 0.0284013366413513 0
9.9296875 0.086093109887357 0
9.93359375 0.24251155404772726 0
9.9375 0.3933374121621684 0
9.94140625 0.5517034268227772 0
9.9453125 0.7869169018214793 0
9.94921875 0.9292383112201172 0
9.953125 1.1196731139501501 0
9.95703125 1.1290336801659633 3
9.9609375 1.139692783247823 0
9.96484375 1.0947264481898995 0
9.96875 0.9361002265165312 0
9.97265625 0.7738324854324902 0
9.9765625 0.5185024811990231 0
9.98046875 0.35910115142296123 0
9.984375 0.1139048376852759 0
9.98828125 -0.03908638840293355 0
9.9921875 -0.13052408779404281 0
9.99609375 -0.22509093491149315 0
10.0 -0.3127663544830629 0
10.00390625 -0.2752110407593081 4
10.0078125 -0.2594988255458114 0
10.01171875 -0.2389071170924514 0
10.015625 -0.2547069304334414 0
10.01953125 -0.19414408366363956 0
10.0234375 -0.10352068409008686 0
10.02734375 -0.12314287553491539 0
10.03125 -0.10058319706421709 0
10.03515625 -0.03372976535354243 0
10.0390625 -0.05836675249008282 0
10.04296875 0.020234165032832645 0
10.046875 -0.025298055645533706 0
10.05078125 -0.02028695452613345 0
10.0546875 0.025897428727792767 0
10.05859375 -0.024382986049205968 0
10.0625 -0.014294195512469868 0
10.06640625 0.02112208118245569 0
10.0703125 0.011388458869058064 0
10.07421875 0.0008611675627718807 0
10.078125 0.04371443134264075 0
10.08203125 0.018010762835387904 0
10.0859375 0.06208143331441685 0
10.08984375 0.09534404653627016 0
10.09375 0.08947997505999998 0
10.09765625 0.08158515214211835 0
10.1015625 0.07844483313407008 0
10.10546875 0.0925134848316239 0
10.109375 0.11818974127697013 0
10.11328125 0.11950975709299333 0
10.1171875 0.18187677372738928 0
10.12109375 0.12291195563697216 0
10.125 0.16545505489492432 0
10.12890625 0.20624169856502372 0
10.1328125 0.20123308584066568 0
10.13671875 0.22643987976522642 0
10.140625 0.21619716643576437 0
10.14453125 0.2176961754837673 0
10.1484375 0.24173607026598873 0
10.15234375 0.259304652669137 0
10.15625 0.30748747778261204 0
10.16015625 0.31496379225988 0
10.1640625 0.35846907279465356 0
10.16796875 0.30993119488997567 0
10.171875 0.3251893998715302 0
10.17578125 0.3929383036335265 0
10.1796875 0.39276898116543557 0
10.18359375 0.37045049628549115 0
10.1875 0.398120297956415 0
10.19140625 0.4151796877007714 0
10.1953125 0.45337015289753874 0
10.19921875 0.4569556207149861 0
10.203125 0.39602670676599916 0
10.20703125 0.4066209755167741 0
10.2109375 0.4435224531289781 5
10.21484375 0.4054988865552885 0
10.21875 0.4056777396455986 0
10.22265625 0.4132995331723694 0
10.2265625 0.40615440046171186 0
10.23046875 0.44360351196447056 0
10.234375 0.4263042986590624 0
10.23828125 0.41850465892955563 0
10.2421875 0.4057303011209852 0
10.24609375 0.38499886890156676 0
10.25 0.3187856722002252 0
10.25390625 0.30661735409351004 0
10.2578125 0.3518935071830762 0
10.26171875 0.2795435533597164 0
10.265625 0.2874831280836106 0
10.26953125 0.26398370345115424 0
10.2734375 0.2787049283748294 0
10.27734375 0.20455766192705574 0
10.28125 0.19944244979651266 0
10.28515625 0.23195301410289776 0
10.2890625 0.2161964807575906 0
10.29296875 0.17382540035323057 0
10.296875 0.14162930979077012 0
10.30078125 0.14228410166243152 0
10.3046875 0.1415546854381093 0
10.30859375 0.06387061133133382 0
10.3125 0.08866681364233557 0
10.31640625 0.1057121289073081 0
10.3203125 0.08221770854810603 0
10.32421875 0.05108328960695971 0
10.328125 0.04347207135948204 0
10.33203125 -0.01573141382817507 0
10.3359375 0.013639785582743561 0
10.33984375 0.02090444081423015 0
10.34375 -0.031157490636491716 0
10.34765625 -0.029966193847084613 0
10.3515625 -0.017160359818344 0
10.35546875 -0.004897523050797648 0
10.359375 -0.0297292156712778 0
10.36328125 -0.002806420973344912 0
10.3671875 -0.02077186635524564 0
10.37109375 -0.04043019019983733 0
10.375 -0.03847265189918555 0
10.37890625 -0.06813904846302256 0
10.3828125 -0.056520543652425564 0
10.38671875 -0.06920638768139532 0
10.390625 -0.05254853157384958 0
10.39453125 -0.05935871674082701 0
10.3984375 -0.061105014961694064 0
10.40234375 -0.08951698385499748 0
10.40625 -0.06302358787982303 0
10.41015625 -0.07463315213502365 0
10.4140625 -0.054713541583395454 0
10.41796875 -0.08113477719280021 0
10.421875 -0.07437202767145462 0
10.42578125 -0.03674000293729486 0
10.4296875 -0.05265077945867101 0
10.43359375 -0.038669944519618936 0
10.4375 -0.08285587267063235 0
10.44140625 -0.07064022708664233 0
10.4453125 -0.041253781694617665 0
10.44921875 -0.05249088281088904 0
10.453125 -0.07328211319915293 0
10.45703125 -0.04266561955083534 0
10.4609375 -0.03948247973528217 0
10.46484375 -0.016181519143953056 0
10.46875 -0.08028014326671658 0
10.47265625 -0.09255116936501712 0
10.4765625 -0.0156410196685504 0
10.48046875 -0.07543636284492145 0
10.484375 -0.02048387298873912 0
10.48828125 -0.028621250163297238 0
10.4921875 -0.04569445293968859 0
10.49609375 -0.062083148306441224 0
10.5 -0.02634742398981113 0
10.50390625 -0.030213350770933865 0
10.5078125 -0.04457308647953062 0
10.51171875 -0.053600476737108264 0
10.515625 -0.01878230814210783 0
10.51953125 -0.05312922272608716 0
10.5234375 -0.05314144204958059 0
10.52734375 -0.03557313811504449 0
10.53125 -0.050328368222967906 0
10.53515625 -0.026425933237727725 0
10.5390625 -0.03863455759952583 0
10.54296875 -0.06545472518380582 0
10.546875 -0.08574671636798578 0
10.55078125 -0.03415154683846002 0
10.5546875 -0.07889964195967955 0
10.55859375 -0.03996599320146922 0
10.5625 -0.01676097775141093 0
10.56640625 -0.02301901518312759 0
10.5703125 -0.07777225426412905 0
10.57421875 -0.06966635264148395 0
10.578125 -0.06466844460172877 0
10.58203125 -0.06989592285011113 0
10.5859375 -0.046869509573469643 0
10.58984375 -0.07795594765712377 0
10.59375 -0.06866540529227791 0
10.59765625 -0.06656545091279087 0
10.6015625 -0.06428775321069705 0
10.60546875 -0.03158834474232415 0
10.609375 -0.07744391585691734 0
10.61328125 -0.0821374138661032 0
10.6171875 -0.05242383253416202 0
10.62109375 -0.07420629853980137 0
10.625 -0.07167353333463845 0
10.62890625 -0.04914318219749694 0
10.6328125 -0.007309285630217863 0
10.63671875 -0.08313848993690162 0
10.640625 -0.0306377706339285 0
10.64453125 -0.038210423072813984 0
10.6484375 -0.0705864449553266 0
10.65234375 -0.014624729623616255 0
10.65625 -0.06600286000878644 0
10.66015625 -0.06405201026853796 0
10.6640625 -0.05634363583630366 0
10.66796875 -0.00959754098927875 0
10.671875 -0.008631122533835231 0
10.67578125 -0.06559804884774298 0
10.6796875 -0.05158349222797037 0
10.68359375 -0.050634519973149966 0
10.6875 -0.047218941139839175 0
10.69140625 -0.04254526089045761 0
10.6953125 -0.03719472352309529 0
10.69921875 -0.05894234694616438 0
10.703125 -0.04883260542926664 0
10.70703125 -0.009202899231429442 0
10.7109375 -0.02293224823401447 0
10.71484375 -0.055960183523754356 0
10.71875 -0.02059459683009181 0
10.72265625 0.007349777029564455 0
10.7265625 0.025562978443657375 0
10.73046875 0.04191272635891514 0
10.734375 0.0318504339242205 0
10.73828125 0.055988475387846626 0
10.7421875 0.019895211582619428 0
10.74609375 0.043455768026739075 0
10.75 0.0702116177336917 0
10.75390625 0.09563512533726583 0
10.7578125 0.10481666866349379 0
10.76171875 0.11257459591425818 0
10.765625 0.11158836077866924 0
10.76953125 0.12398469035778587 0
10.7734375 0.12862683414705667 0
10.77734375 0.16566021254142474 0
10.78125 0.19339246420695846 0
10.78515625 0.19973410275729947 0
10.7890625 0.23617366564722073 0
10.79296875 0.23450110652674017 0
10.796875 0.21686437983945284 0
10.80078125 0.20826701647762152 0
10.8046875 0.2560387268551301 1
10.80859375 0.2462993993140524 0
10.8125 0.20616938613018532 0
10.81640625 0.2559557104723911 0
10.8203125 0.21284883472789518 0
10.82421875 0.20805496677594212 0
10.828125 0.18905111534825927 0
10.83203125 0.18073468761608177 0
10.8359375 0.20267699741242176 0
10.83984375 0.11257750634419231 0
10.84375 0.09990344944750176 0
10.84765625 0.07335812465423797 0
10.8515625 0.10482536740374411 0
10.85546875 0.10189437183697984 0
10.859375 0.07152694132821623 0
10.86328125 0.04381470057880052 0
10.8671875 -0.007060581964090679 0
10.87109375 0.04334488981962997 0
10.875 0.006901873825367595 0
10.87890625 0.01549303452777235 0
10.8828125 -0.05425908962118054 0
10.88671875 -0.055054277436511104 0
10.890625 -0.05957118199119814 0
10.89453125 -0.07216979495752984 0
10.8984375 -0.07155339528301245 0
10.90234375 -0.0597065253637373 0
10.90625 -0.13567606570218238 0
10.91015625 -0.1610820235231029 0
10.9140625 -0.16112539333423476 0
10.91796875 -0.20212157720998075 0
10.921875 -0.21283760753832442 0
10.92578125 -0.20063326812298854 0
10.9296875 -0.23625812944943106 2
10.93359375 -0.1871175538135239 0
10.9375 -0.18707047628434423 0
10.94140625 -0.10907120952386165 0
10.9453125 -0.01693088054437697 0
10.94921875 0.13400661722463683 0
10.953125 0.2819258190749718 0
10.95703125 0.5127647311175747 0
10.9609375 0.7109400867685276 0
10.96484375 0.8689272580258965 0
10.96875 0.9889665660455813 0
10.97265625 1.0862054238214682 0
10.9765625 1.0742787976856696 3
10.98046875 0.9993331673105618 0
10.984375 0.8911931534061668 0
10.98828125 0.754797184686972 0
10.9921875 0.4827665385307647 0
10.99609375 0.2832491035334546 0
11.0 0.08734393316205355 0
11.00390625 -0.009281688879262777 0
11.0078125 -0.15940368577973962 0
11.01171875 -0.30431009325843716 0
11.015625 -0.32343279508504463 0
11.01953125 -0.3782897266228669 4
11.0234375 -0.3355326748103481 0
11.02734375 -0.2919759696346002 0
11.03125 -0.2655075096442092 0
11.03515625 -0.21022457632705194 0
11.0390625 -0.19277713044627962 0
11.04296875 -0.16053658896782802 0
11.046875 -0.09034587328795839 0
11.05078125 -0.11421375739969697 0
11.0546875 -0.05185748497391522 0
11.05859375 -0.0700432980119621 0
11.0625 -0.03930552277749425 0
11.06640625 -0.06918207013751597 0
11.0703125 -0.08921749399467105 0
11.07421875 -0.04687904435453263 0
11.078125 -0.03518730206690711 0
11.08203125 -0.01761070640123456 0
11.0859375 -0.03948221956671164 0
11.08984375 0.007831987426160147 0
11.09375 -0.03274864315152159 0
11.09765625 -0.018177164225731814 0
11.1015625 -0.020153020903370407 0
11.10546875 0.01620508508291977 0
11.109375 -0.006211056986865004 0
11.11328125 0.05557674158814212 0
11.1171875 -0.004607660885754851 0
11.12109375 0.03648115224936276 0
11.125 0.01972503280080415 0
11.12890625 0.09100451785869036 0
11.1328125 0.10436060711465603 0
11.13671875 0.08817298627299237 0
11.140625 0.12787895763776896 0
11.14453125 0.14564176580871468 0
11.1484375 0.1756621482527509 0
11.15234375 0.14347561250278074 0
11.15625 0.1395276991221304 0
11.16015625 0.19874218301065463 0
11.1640625 0.2130046791636271 0
11.16796875 0.22874112147507347 0
11.171875 0.2696081343689618 0
11.17578125 0.21276176410796505 0
11.1796875 0.28541511222587523 0
11.18359375 0.29755742548901903 0
11.1875 0.28934337040582614 0
11.19140625 0.3390225163954079 0
11.1953125 0.35930147788254674 0
11.19921875 0.29531339587106226 0
11.203125 0.32176443885304046 0
11.20703125 0.36475659478351896 0
11.2109375 0.37077899042516743 0
11.21484375 0.32224001998370705 0
11.21875 0.36989382917769703 0
11.22265625 0.3540341760852784 0
11.2265625 0.33661832460341945 5
11.23046875 0.37390064925901234 0
11.234375 0.35496613834290447 0
11.23828125 0.34187658806250215 0
11.2421875 0.37977289971784034 0
11.24609375 0.30931631878589766 0
11.25 0.3268420875698035 0
11.25390625 0.2943259550865441 0
11.2578125 0.2791883957482778 0
11.26171875 0.2753434183716217 0
11.265625 0.28039772120465883 0
11.26953125 0.290567881850035 0
11.2734375 0.2599468535638648 0
11.27734375 0.23421427777152867 0
11.28125 0.2304723638332682 0
11.28515625 0.16872589113719577 0
11.2890625 0.21060944252878117 0
11.29296875 0.19354981207631916 0
11.296875 0.17390661427412152 0
11.30078125 0.10067347597278214 0
11.3046875 0.12725359158668229 0
11.30859375 0.09765064198016123 0
11.3125 0.06453761091981945 0
11.31640625 0.024231411887226842 0
11.3203125 0.015798118124396625 0
11.32421875 0.005690753266195173 0
11.328125 0.021298862506076273 0
11.33203125 -0.01536098735589019 0
11.3359375 0.0005845459655742947 0
11.33984375 0.004899510945441953 0
11.34375 -0.01930761268586068 0
11.34765625 -0.02967858588588475 0
11.3515625 -0.04320939673717658 0
11.35546875 -0.037534946315753305 0
11.359375 -0.03384599863785895 0
11.36328125 -0.07473325996614731 0
11.3671875 -0.11322698951724328 0
11.37109375 -0.09028667828390792 0
11.375 -0.12056981924279511 0
11.37890625 -0.13154866088498188 0
11.3828125 -0.0630939881333402 0
11.38671875 -0.11332740827765089 0
11.390625 -0.12126306861555458 0
11.39453125 -0.12399028128348587 0
11.3984375 -0.12017227652318639 0
11.40234375 -0.14068713683378678 0
11.40625 -0.1256085682742533 0
11.41015625 -0.1467244250394717 0
11.4140625 -0.09538152664234195 0
11.41796875 -0.09398125524703455 0
11.421875 -0.14429385705753642 0
11.42578125 -0.12718708866472553 0
11.4296875 -0.10477254627300363 0
11.43359375 -0.10358739207738414 0
11.4375 -0.12323245259745075 0
11.44140625 -0.10631223540641836 0
11.4453125 -0.08591212375308101 0
11.44921875 -0.1074131809315629 0
11.453125 -0.1325226704759971 0
11.45703125 -0.11575997021676662 0
11.4609375 -0.08786647772968363 0
11.46484375 -0.12277530288080925 0
11.46875 -0.129328209388578 0
11.47265625 -0.08336171229336536 0
11.4765625 -0.13605438308639903 0
11.48046875 -0.07953509382673579 0
11.484375 -0.0866845238031165 0
11.48828125 -0.13752064967269306 0
11.4921875 -0.09657587542363848 0
11.49609375 -0.11086463146921367 0
11.5 -0.08241937504284177 0
11.50390625 -0.11878947156955842 0
11.5078125 -0.10099522007174895 0
11.51171875 -0.12937689990742834 0
11.515625 -0.13344608520613474 0
11.51953125 -0.12161521356636201 0
11.5234375 -0.09679436844462207 0
11.52734375 -0.10505336986328678 0
11.53125 -0.09365670593376185 0
11.53515625 -0.09847620177077737 0
11.5390625 -0.07207850210841157 0
11.54296875 -0.1086381017054443 0
11.546875 -0.07651183446446998 0
11.55078125 -0.0990766718399453 0
11.5546875 -0.10017740053224386 0
11.55859375 -0.10956456803183716 0
11.5625 -0.10433563852603862 0
11.56640625 -0.08223843423957541 0
11.5703125 -0.07860529919754076 0
11.57421875 -0.09101638173207405 0
11.578125 -0.09718675788935315 0
11.58203125 -0.13186883818603234 0
11.5859375 -0.11553871311396154 0
11.58984375 -0.10964418791466604 0
11.59375 -0.06612717506307562 0
11.59765625 -0.06395287700991589 0
11.6015625 -0.10551320978432656 0
11.60546875 -0.13126480910789234 0
11.609375 -0.11198826304648644 0
11.61328125 -0.07021646303922774 0
11.6171875 -0.06768116898183824 0
11.62109375 -0.12423020295728301 0
11.625 -0.09422942029594714 0
11.62890625 -0.1334352060453686 0
11.6328125 -0.08927267405474253 0
11.63671875 -0.055914201255428016 0
11.640625 -0.11201643871889613 0
11.64453125 -0.1284908542482376 0
11.6484375 -0.07151420469990243 0
11.65234375 -0.07376202750338251 0
11.65625 -0.1061743025612442 0
11.66015625 -0.10234844747210861 0
11.6640625 -0.08882621613101563 0
11.66796875 -0.10623921477187113 0
11.671875 -0.08202570360503891 0
11.67578125 -0.08346782130487947 0
11.6796875 -0.09583267766668313 0
11.68359375 -0.10079361497794276 0
11.6875 -0.07508459380216095 0
11.69140625 -0.06591581950046349 0
11.6953125 -0.0636666937956976 0
11.69921875 -0.11449384012473132 0
11.703125 -0.09619414394839607 0
11.70703125 -0.06402917063501232 0
11.7109375 -0.0662041909449339 0
11.71484375 -0.06871871295321065 0
11.71875 -0.03437900007761854 0
11.72265625 -0.06510273910299329 0
11.7265625 -0.03488060061415258 0
11.73046875 -0.038240239006435736 0
11.734375 -0.05797186245837496 0
11.73828125 -0.03223216077311592 0
11.7421875 -0.033216677982637506 0
11.74609375 -0.017144019282074534 0
11.75 -0.049961855048494645 0
11.75390625 -0.009510060478520361 0
11.7578125 -0.0015465254554662897 0
11.76171875 0.011047967427289883 0
11.765625 0.03169997516431669 0
11.76953125 0.09455523268513134 0
11.7734375 0.08138596022117835 0
11.77734375 0.10044400653390587 0
11.78125 0.11372219565063833 0
11.78515625 0.14366947132140206 0
11.7890625 0.15007999572539002 0
11.79296875 0.12757694351140683 0
11.796875 0.2001368195160404 0
11.80078125 0.2034276234916467 0
11.8046875 0.21925317696330218 0
11.80859375 0.21748541811033836 0
11.8125 0.1855282859245253 0
11.81640625 0.19617904251753931 1
11.8203125 0.2266165597315862 0
11.82421875 0.16974637472576312 0
11.828125 0.22929526120427263 0
11.83203125 0.15039305918874768 0
11.8359375 0.16395795394331872 0
11.83984375 0.1633976811543667 0
11.84375 0.12410653238958455 0
11.84765625 0.11950575471027793 0
11.8515625 0.09135944855303585 0
11.85546875 0.1053070624582569 0
11.859375 0.10506309446104818 0
11.86328125 0.07376442426517134 0
11.8671875 0.05366912118658226 0
11.87109375 0.06486362296603736 0
11.875 0.04638081846731634 0
11.87890625 0.011392878352337417 0
11.8828125 0.02550911793274599 0
11.88671875 -0.047473329303808154 0
11.890625 -0.049361122058981716 0
11.89453125 -0.06283166182773031 0
11.8984375 -0.04997495090371626 0
11.90234375 -0.08277656145944151 0
11.90625 -0.073324667727593 0
11.91015625 -0.11343458824829297 0
11.9140625 -0.08996214185563187 0
11.91796875 -0.1099187194076762 0
11.921875 -0.12288318709686907 0
11.92578125 -0.20211771596361544 0
11.9296875 -0.23692720754348623 0
11.93359375 -0.2512316497238874 0
11.9375 -0.20595994576351018 2
11.94140625 -0.21114995323147717 0
11.9453125 -0.22132062185189022 0
11.94921875 -0.13783466543215525 0
11.953125 -0.08720437903028058 0
11.95703125 0.011128026027913874 0
11.9609375 0.1404189052183467 0
11.96484375 0.3540875255555097 0
11.96875 0.5278457391536393 0
11.97265625 0.7490085406650921 0
11.9765625 0.8696128802899435 0
11.98046875 1.0064191118329093 0
11.984375 1.0310945067694368 3
11.98828125 1.0835078014935622 0
11.9921875 1.0055243601962507 0
11.99609375 0.8385869665122947 0
12.0 0.6037104957894571 0
12.00390625 0.404899112005245 0
12.0078125 0.2459190393457586 0
12.01171875 0.01110305918155996 0
12.015625 -0.13147827310363733 0
12.01953125 -0.18142199917238422 0
12.0234375 -0.28863425912452106 0
12.02734375 -0.3316587825574826 0
12.03125 -0.3403328695661092 4
12.03515625 -0.25368106130074536 0
12.0390625 -0.268064250561758 0
12.04296875 -0.24417846498273862 0
12.046875 -0.1941876603304777 0
12.05078125 -0.10557201969100254 0
12.0546875 -0.08731594533078109 0
12.05859375 -0.07501225254584244 0
12.0625 -0.035718411015008666 0
12.06640625 -0.014623324522447231 0
12.0703125 -0.03584828126314631 0
12.07421875 -0.015845970988939587 0
12.078125 -0.003335559940669322 0
12.08203125 -0.003336028850371403 0
12.0859375 -0.007844089710426291 0
12.08984375 -0.01174454797235867 0
12.09375 -0.004356616741275181 0
12.09765625 0.005680606730607616 0
12.1015625 0.01251966024906341 0
12.10546875 0.02523414427792324 0
12.109375 0.06412560912247667 0
12.11328125 0.028408693409601768 0
12.1171875 0.024663112078415688 0
12.12109375 0.02911982816348579 0
12.125 0.03221735247162876 0
12.12890625 0.05226395172819872 0
12.1328125 0.10447818982431571 0
12.13671875 0.1146058637005258 0
12.140625 0.08838761022133437 0
12.14453125 0.12325124926642889 0
12.1484375 0.15183869689392476 0
12.15234375 0.15707864329672114 0
12.15625 0.19262798493307381 0
12.16015625 0.23026884588148624 0
12.1640625 0.2233395136188114 0
12.16796875 0.19369415510964347 0
12.171875 0.22440565608839663 0
12.17578125 0.22654157015608983 0
12.1796875 0.26376619640165716 0
12.18359375 0.29041844142808854 0
12.1875 0.294521113677178 0
12.19140625 0.34464260621156473 0
12.1953125 0.33534249011502365 0
12.19921875 0.3448958211743051 0
12.203125 0.36386879671727884 0
12.20703125 0.3386199210896648 0
12.2109375 0.4014445100448558 0
12.21484375 0.36657581488304547 0
12.21875 0.4013807492057613 0
12.22265625 0.4120001493037784 0
12.2265625 0.42986042961159027 5
12.23046875 0.40796390134657623 0
12.234375 0.360098376234993 0
12.23828125 0.4202596262790438 0
12.2421875 0.4084388559412054 0
12.24609375 0.3953128818947184 0
12.25 0.36765047088676867 0
12.25390625 0.32813025222751685 0
12.2578125 0.367621253600385 0
12.26171875 0.3141378657029858 0
12.265625 0.3107286883124798 0
12.26953125 0.3247886917038746 0
12.2734375 0.3282550897992984 0
12.27734375 0.25440902334056126 0
12.28125 0.2514780962037335 0
12.28515625 0.2792439308176354 0
12.2890625 0.2641271528528261 0
12.29296875 0.21150012579564104 0
12.296875 0.14998515196867718 0
12.30078125 0.20171833748553714 0
12.3046875 0.14034138874266203 0
12.30859375 0.14181058681782502 0
12.3125 0.12020491154603367 0
12.31640625 0.07116134387918795 0
12.3203125 0.1106035577515829 0
12.32421875 0.08479136759503521 0
12.328125 0.060737259978171615 0
12.33203125 0.08195756999029524 0
12.3359375 0.058685235252110085 0
12.33984375 -0.0016860076330611831 0
12.34375 0.048900416816507024 0
12.34765625 -0.0002835196391395515 0
12.3515625 0.025436856286529145 0
12.35546875 0.0010828042528035244 0
12.359375 -0.013410803248258062 0
12.36328125 -0.04268842964985451 0
12.3671875 -0.014272970165276073 0
12.37109375 -0.019823163945604187 0
12.375 0.0021699435057772193 0
12.37890625 -0.05459387742059926 0
12.3828125 -0.05537357902473606 0
12.38671875 -0.04568329012224725 0
12.390625 -0.07906593928149817 0
12.39453125 -0.04067799194664431 0
12.3984375 -0.04257735286214313 0
12.40234375 -0.006540597536399663 0
12.40625 -0.06443084053858339 0
12.41015625 -0.07734676168578089 0
12.4140625 -0.08384177236008156 0
12.41796875 -0.010991371688044003 0
12.421875 -0.019807328352463672 0
12.42578125 -0.0347518244844868 0
12.4296875 -0.01860829245948845 0
12.43359375 -0.013553201271891371 0
12.4375 -0.05833351572080615 0
12.44140625 -0.028455296357552628 0
12.4453125 -0.024732770141648475 0
12.44921875 -0.08133567638325949 0
12.453125 -0.0030483025608538175 0
12.45703125 -0.01480758298681168 0
12.4609375 -0.040659521724348606 0
12.46484375 -0.07399952772265089 0
12.46875 -0.04249359973376247 0
12.47265625 -0.049190659252474025 0
12.4765625 -0.02622694052867118 0
12.48046875 -0.05896892053683289 0
12.484375 -0.05252884847960554 0
12.48828125 -0.05505852310859072 0
12.4921875 -0.00843428854816813 0
12.49609375 -0.05215856551458174 0
12.5 -0.0479039722441807 0
12.50390625 -0.04120634432993934 0
12.5078125 -0.015636787166790105 0
12.51171875 -0.0628622773182679 0
12.515625 -0.008318078654808936 0
12.51953125 -0.05418468315856689 0
12.5234375 -0.032312359506573664 0
12.52734375 -0.021948425775152366 0
12.53125 -0.015966459120990324 0
12.53515625 -0.06151165867538578 0
12.5390625 -0.024146235033882787 0
12.54296875 -0.007615213768874314 0
12.546875 -0.006201018080826438 0
12.55078125 0.011414076866083193 0
12.5546875 -0.004511112482607719 0
12.55859375 -0.035336247326771264 0
12.5625 -0.02820899154078424 0
12.56640625 0.010938177302157789 0
12.5703125 -0.000993985996378996 0
12.57421875 -0.00817735103231411 0
12.578125 -0.037328396027767385 0
12.58203125 -0.02945807547391486 0
12.5859375 -0.0037435718823732936 0
12.58984375 -0.01956288266523927 0
12.59375 0.013549819513144025 0
12.59765625 0.022118665227509243 0
12.6015625 -0.027767348128011623 0
12.60546875 0.0158732447485735 0
12.609375 -0.039625369525137 0
12.61328125 -0.005544522659439932 0
12.6171875 0.019088972944150545 0
12.62109375 0.024059712486388538 0
12.625 -0.01939630085565177 0
12.62890625 -0.04437683623249055 0
12.6328125 0.01024976825658853 0
12.63671875 0.022056925719235895 0
12.640625 0.026046158675419002 0
12.64453125 0.023831823575636714 0
12.6484375 0.01960715671978957 0
12.65234375 -0.0408420570008579 0
12.65625 -0.020959544607356877 0
12.66015625 0.020780678870218477 0
12.6640625 -0.02636415213738543 0
12.66796875 0.026823917667274412 0
12.671875 -0.007242112528718533 0
12.67578125 -0.008643766998671696 0
12.6796875 -0.029639074791021035 0
12.68359375 0.03683597586607004 0
12.6875 0.03525228157169155 0
12.69140625 -0.0010671383728691076 0
12.6953125 0.027366689313369403 0
12.69921875 -0.010766994312933879 0
12.703125 0.03891935701928068 0
12.70703125 -0.0017038581494959529 0
12.7109375 0.06303938199316415 0
12.71484375 0.06666491683037318 0
12.71875 0.04993246521182939 0
12.72265625 0.050545284843622966 0
12.7265625 0.024551696349597404 0
12.73046875 0.08097566999396309 0
12.734375 0.06628054508011824 0
12.73828125 0.1274282221328897 0
12.7421875 0.09665838017248106 0
12.74609375 0.13403187671646632 0
12.75 0.1319728077582247 0
12.75390625 0.1656676935597976 0
12.7578125 0.20698100016967463 0
12.76171875 0.2262752266452464 0
12.765625 0.22038675578614417 0
12.76953125 0.2414296803408874 0
12.7734375 0.22009515013523828 0
12.77734375 0.2641917760600754 0
12.78125 0.2998032218597034 0
12.78515625 0.2633232163399034 0
12.7890625 0.2913548246710278 0
12.79296875 0.3264374118467861 0
12.796875 0.27741837034193817 0
12.80078125 0.3080690409905819 1
12.8046875 0.31683706405626055 0
12.80859375 0.2654115790350826 0
12.8125 0.31750215039257507 0
12.81640625 0.30466477575884526 0
12.8203125 0.22841323751160203 0
12.82421875 0.2817976882327403 0
12.828125 0.24748987786539056 0
12.83203125 0.19931786667654489 0
12.8359375 0.23685236646477065 0
12.83984375 0.16862731623725358 0
12.84375 0.1361008836202584 0
12.84765625 0.12393767732704576 0
12.8515625 0.1105580546668359 0
12.85546875 0.14953488076735738 0
12.859375 0.10185424685255214 0
12.86328125 0.1084130660120895 0
12.8671875 0.0719256731441723 0
12.87109375 0.03495069355240453 0
12.875 0.08581516508035444 0
12.87890625 0.01411919745958267 0
12.8828125 0.02175774379490791 0
12.88671875 0.016799595792335368 0
12.890625 -0.00893969448152257 0
12.89453125 0.02165329997480818 0
12.8984375 -0.040662373491720166 0
12.90234375 -0.08657462942748873 0
12.90625 -0.0982167015173969 0
12.91015625 -0.0854893074129896 0
12.9140625 -0.11754965043827442 0
12.91796875 -0.16897784968888074 2
12.921875 -0.1052140167202669 0
12.92578125 -0.09027543702334959 0
12.9296875 -0.004438072246702018 0
12.93359375 0.07182876947327038 0
12.9375 0.15982571321780484 0
12.94140625 0.32519006195903605 0
12.9453125 0.5155378717043793 0
12.94921875 0.7020355834389166 0
12.953125 0.8795469841672567 0
12.95703125 1.0612660243427143 0
12.9609375 1.1511353193868408 0
12.96484375 1.1057219846357502 3
12.96875 1.0993116365705264 0
12.97265625 0.9417417071387615 0
12.9765625 0.753480102550347 0
12.98046875 0.5178065963584153 0
12.984375 0.3262313700129485 0
12.98828125 0.17723282252672048 0
12.9921875 -0.0015463389219330902 0
12.99609375 -0.10402512877446277 0
13.0 -0.24979206933163697 0
13.00390625 -0.24860014308047415 0
13.0078125 -0.25302613754027353 4
13.01171875 -0.28185878798839575 0
13.015625 -0.254678571681651 0
13.01953125 -0.18933129454464104 0
13.0234375 -0.17882943516785824 0
13.02734375 -0.11782305676420411 0
13.03125 -0.09544561289843725 0
13.03515625 -0.018426193292394654 0
13.0390625 -0.021635571771846523 0
13.04296875 -0.019934304949651156 0
13.046875 -0.0027454784125516257 0
13.05078125 0.022301652874519847 0
13.0546875 0.015660816115928157 0
13.05859375 0.06185936278990817 0
13.0625 0.015148461194655152 0
13.06640625 0.02427083808543149 0
13.0703125 0.05154470187777944 0
13.07421875 0.06750321760507608 0
13.078125 0.03492746475719288 0
13.08203125 0.02858244102202129 0
13.0859375 0.07014496843988975 0
13.08984375 0.08498914997842821 0
13.09375 0.04541758721776955 0
13.09765625 0.11973127335549255 0
13.1015625 0.09148895794877143 0
13.10546875 0.10464742584495369 0
13.109375 0.12393980508960943 0
13.11328125 0.15081500102848486 0
13.1171875 0.14797257448018925 0
13.12109375 0.173820222339401 0
13.125 0.21056025377250628 0
13.12890625 0.21600948549221202 0
13.1328125 0.19461701851189828 0
13.13671875 0.210017158873534 0
13.140625 0.24607031471282112 0
13.14453125 0.2675921655612464 0
13.1484375 0.2858680396471742 0
13.15234375 0.289597455478172 0
13.15625 0.3078812577132035 0
13.16015625 0.3703265839740849 0
13.1640625 0.3144656441671848 0
13.16796875 0.38203003733771035 0
13.171875 0.4197550983940249 0
13.17578125 0.4062164258391994 0
13.1796875 0.38214413804939174 0
13.18359375 0.41114088265881704 0
13.1875 0.4491406333026638 0
13.19140625 0.4294484878440656 0
13.1953125 0.45382822317786037 0
13.19921875 0.4804687186610134 0
13.203125 0.4223081092296273 0
13.20703125 0.4668748734293784 0
13.2109375 0.44142252345772176 5
13.21484375 0.42524664606817497 0
13.21875 0.4284847355840252 0
13.22265625 0.4751471764657915 0
13.2265625 0.42215546133624005 0
13.23046875 0.40617865717987806 0
13.234375 0.39812247522141236 0
13.23828125 0.4393132083168277 0
13.2421875 0.3845971778204904 0
13.24609375 0.37762053494100567 0
13.25 0.37521966658934985 0
13.25390625 0.3350696557795554 0
13.2578125 0.3255881002699603 0
13.26171875 0.3702202523814717 0
13.265625 0.3259562976459015 0
13.26953125 0.30393282454142007 0
13.2734375 0.30068960478494944 0
13.27734375 0.3004698588030086 0
13.28125 0.26782118856949544 0
13.28515625 0.252724219098393 0
13.2890625 0.2261204848620331 0
13.29296875 0.16897403998596733 0
13.296875 0.17591594225765927 0
13.30078125 0.15090683064366 0
13.3046875 0.16699706809594334 0
13.30859375 0.1723214753959028 0
13.3125 0.09258796446046297 0
13.31640625 0.07580571419631635 0
13.3203125 0.07964946841627132 0
13.32421875 0.0694063875898515 0
13.328125 0.0891883953277749 0
13.33203125 0.09120806237599725 0
13.3359375 0.0334303692656025 0
13.33984375 0.020371720368399106 0
13.34375 0.012659889042358076 0
13.34765625 0.03342705422913549 0
13.3515625 0.0042482677189517 0
13.35546875 0.03359322714308714 0
13.359375 0.03231409515038712 0
13.36328125 0.03557000791324612 0
13.3671875 0.04957465488621547 0
13.37109375 0.029865876766883404 0
13.375 -0.026957859851187413 0
13.37890625 0.027272374575113098 0
13.3828125 0.021030534496566847 0
13.38671875 0.04092926501681285 0
13.390625 -0.03089452868513503 0
13.39453125 0.010356872684346367 0
13.3984375 -0.027276515250316283 0
13.40234375 0.01644320406934354 0
13.40625 -0.028142210484703473 0
13.41015625 0.006979403015249481 0
13.4140625 0.0014917101064176141 0
13.41796875 -0.0036102780974661946 0
13.421875 0.009300678008859762 0
13.42578125 0.032950261391298336 0
13.4296875 -0.026973836532236964 0
13.43359375 0.03130846165783574 0
13.4375 0.036983459593249696 0
13.44140625 -0.025801425850198255 0
13.4453125 -0.03156932612528876 0
13.44921875 -0.009717533485223594 0
13.453125 0.01577630500040845 0
13.45703125 0.00941718221793273 0
13.4609375 0.019145357713173217 0
13.46484375 -0.007405145509092385 0
13.46875 -0.01829847357290222 0
13.47265625 -0.02439113762249407 0
13.4765625 -0.02407619707177787 0
13.48046875 0.03170436692801641 0
13.484375 -0.00798630942214499 0
13.48828125 -0.007242930262794895 0
13.4921875 0.025949128717917734 0
13.49609375 -0.006700745988255593 0
13.5 0.021630590440998382 0
13.50390625 0.0013063641487547975 0
13.5078125 0.000581009859880105 0
13.51171875 -0.0020589357354202885 0
13.515625 -0.005441964519365208 0
13.51953125 0.0513816442811593 0
13.5234375 0.00991086596276296 0
13.52734375 0.044520137151232014 0
13.53125 0.038622532763235545 0
13.53515625 0.018648130164008035 0
13.5390625 0.03933200238324714 0
13.54296875 0.01280766428576775 0
13.546875 0.05029866819153378 0
13.55078125 -0.0051601343793128834 0
13.5546875 0.028542370956432632 0
13.55859375 -0.002702432143482175 0
13.5625 -0.012741678660582761 0
13.56640625 0.025796128742791843 0
13.5703125 0.0506481227496734 0
13.57421875 0.03867614011123939 0
13.578125 0.011006511743103527 0
13.58203125 0.05050496552008794 0
13.5859375 0.05285185585318758 0
13.58984375 0.0490130680228458 0
13.59375 0.04894819651850835 0
13.59765625 0.04824032443277646 0
13.6015625 0.029209122205920354 0
13.60546875 0.01231340550418384 0
13.609375 -0.005285939654898986 0
13.61328125 0.06372765490908554 0
13.6171875 0.03798674056021648 0
13.62109375 0.0016425873261188065 0
13.625 0.053173525154535474 0
13.62890625 0.007350789497585282 0
13.6328125 0.01492691103170387 0
13.63671875 0.01623724700113835 0
13.640625 0.03948698409163234 0
13.64453125 0.022697329738662626 0
13.6484375 0.022453777514334406 0
13.65234375 0.011239811820048313 0
13.65625 0.00678552615907764 0
13.66015625 0.06016040899466627 0
13.6640625 0.001672732264342669 0
13.66796875 0.047756062949882855 0
13.671875 0.0646836844954217 0
13.67578125 0.006234967951368811 0
13.6796875 0.045421937574251475 0
13.68359375 0.07670051389848272 0
13.6875 0.042574959304701156 0
13.69140625 0.0340351441187739 0
13.6953125 0.058718032170097356 0
13.69921875 0.06347395294359473 0
13.703125 0.09655850690297293 0
13.70703125 0.05223237357504585 0
13.7109375 0.04617169124300345 0
13.71484375 0.10819316339827201 0
13.71875 0.11994732296318045 0
13.72265625 0.1155866235797997 0
13.7265625 0.08040843826825166 0
13.73046875 0.07559029003664752 0
13.734375 0.14983918082733075 0
13.73828125 0.11726520757420578 0
13.7421875 0.1197281523600175 0
13.74609375 0.162857511302444 0
13.75 0.1474989259242035 0
13.75390625 0.16812755281163197 0
13.7578125 0.22068251079804702 0
13.76171875 0.21234690390931849 0
13.765625 0.2693146883787099 0
13.76953125 0.23414745932915357 0
13.7734375 0.24815441373735186 0
13.77734375 0.29888031952001864 0
13.78125 0.33658636898313826 0
13.78515625 0.2873491032271891 0
13.7890625 0.3073050897042306 0
13.79296875 0.34303174971533745 0
13.796875 0.32009475777474566 1
13.80078125 0.29530612934746603 0
13.8046875 0.32941994762924287 0
13.80859375 0.3220223672955407 0
13.8125 0.3063690133248893 0
13.81640625 0.2965029114168996 0
13.8203125 0.2918470360953986 0
13.82421875 0.2761428914819054 0
13.828125 0.24458705959909652 0
13.83203125 0.2660894304712228 0
13.8359375 0.24308177102057826 0
13.83984375 0.19163227864636734 0
13.84375 0.2182967225861717 0
13.84765625 0.20822610062303232 0
13.8515625 0.17418665276175926 0
13.85546875 0.1371748106624934 0
13.859375 0.11565046176510554 0
13.86328125 0.1221150061299264 0
13.8671875 0.13593977315655284 0
13.87109375 0.08988441383456783 0
13.875 0.0559856973077644 0
13.87890625 0.10236079186480687 0
13.8828125 0.05324621322377011 0
13.88671875 0.03632847165008406 0
13.890625 0.04207510161408603 0
13.89453125 0.0006328676525470638 0
13.8984375 -0.014301900324594052 0
13.90234375 -0.011884785115918079 0
13.90625 -0.09379840126978632 0
13.91015625 -0.08238790399531665 0
13.9140625 -0.1488589630980383 0
13.91796875 -0.10582078370929973 2
13.921875 -0.1028730711233637 0
13.92578125 -0.11961534428129743 0
13.9296875 -0.0913632951420392 0
13.93359375 0.06557663607155574 0
13.9375 0.1332436295324544 0
13.94140625 0.2608957384768898 0
13.9453125 0.42906539118125686 0
13.94921875 0.6874368459438581 0
13.953125 0.837350154837528 0
13.95703125 1.0474959867229068 0
13.9609375 1.1233438587589333 0
13.96484375 1.1831266942742187 3
13.96875 1.1511887832707328 0
13.97265625 1.0649315914938813 0
13.9765625 0.8917200941692218 0
13.98046875 0.7378017447001007 0
13.984375 0.5231174881274399 0
13.98828125 0.3496991159934873 0
13.9921875 0.10475039976081602 0
13.99609375 0.00003980877053107179 0
14.0 -0.1397006046493939 0
14.00390625 -0.2721621857940406 0
14.0078125 -0.311408388565018 0
14.01171875 -0.275906755943896 4
14.015625 -0.30426355187306175 0
14.01953125 -0.29706698279819843 0
14.0234375 -0.24869803539797955 0
14.02734375 -0.1927983858164477 0
14.03125 -0.12446343867859638 0
14.03515625 -0.12633707924583099 0
14.0390625 -0.08214629352654967 0
14.04296875 -0.03646897876066255 0
14.046875 -0.04064552123681496 0
14.05078125 -0.01194863737958475 0
14.0546875 -0.04117744668977981 0
14.05859375 -0.024301911819079536 0
14.0625 -0.03466201979983165 0
14.06640625 0.025286091339002063 0
14.0703125 0.011324092489851483 0
14.07421875 -0.025766937546102486 0
14.078125 0.041023734271578294 0
14.08203125 0.05690335056106324 0
14.0859375 0.0037668872851734855 0
14.08984375 0.010335169264202502 0
14.09375 0.018561191655222655 0
14.09765625 0.046615440874236726 0
14.1015625 0.051098108017791466 0
14.10546875 0.030140583184652688 0
14.109375 0.10636236594139342 0
14.11328125 0.04665873332519264 0
14.1171875 0.05685420894066862 0
14.12109375 0.08609833856066076 0
14.125 0.09133769450364905 0
14.12890625 0.16558296210147488 0
14.1328125 0.14495843499045066 0
14.13671875 0.15687682650558477 0
14.140625 0.20721841387932524 0
14.14453125 0.21512499265156326 0
14.1484375 0.22872471988501858 0
14.15234375 0.20626708236463234 0
14.15625 0.2257646701155896 0
14.16015625 0.25803193823533227 0
14.1640625 0.2791923502200585 0
14.16796875 0.2759081736898617 0
14.171875 0.34282309695107877 0
14.17578125 0.3549125133051396 0
14.1796875 0.32360096363847024 0
14.18359375 0.32450758099020144 0
14.1875 0.397315631973964 0
14.19140625 0.3780248757594958 0
14.1953125 0.431368211930504 0
14.19921875 0.3763537755960427 0
14.203125 0.4106142549907744 0
14.20703125 0.4041699015201149 0
14.2109375 0.4170502536501922 0
14.21484375 0.42286046896382873 0
14.21875 0.46218281786438276 0
14.22265625 0.42776734176432113 5
14.2265625 0.4263986356058699 0
14.23046875 0.4185330985158793 0
14.234375 0.44044448759151184 0
14.23828125 0.4271568781794061 0
14.2421875 0.4503092935401866 0
14.24609375 0.4034215266313087 0
14.25 0.41855804470190966 0
14.25390625 0.4042095959168696 0
14.2578125 0.3428712243074912 0
14.26171875 0.3806555609051761 0
14.265625 0.389384958134556 0
14.26953125 0.3715591952406011 0
14.2734375 0.30500842160299574 0
14.27734375 0.30691207725203645 0
14.28125 0.2467008210229268 0
14.28515625 0.30698618353850204 0
14.2890625 0.21545252998728792 0
14.29296875 0.19999703625637075 0
14.296875 0.19512339330896986 0
14.30078125 0.22166105889609444 0
14.3046875 0.21076519377294867 0
14.30859375 0.18538987146370928 0
14.3125 0.17510866497646455 0
14.31640625 0.10265469987163658 0
14.3203125 0.11906671955839863 0
14.32421875 0.058562623984156716 0
14.328125 0.1029407546215798 0
14.33203125 0.0486358529497062 0
14.3359375 0.08089115262140018 0
14.33984375 0.033156485589928605 0
14.34375 0.059152164728470596 0
14.34765625 0.052333437393272925 0
14.3515625 0.008252187747868435 0
